Induced Coil Voltages at Rated Speed
Air-Gap Position (elec. degrees)
Voltage (V)
0	-0.000000
1	-0.101659
2	-0.203697
3	-0.305925
4	-0.407244
5	-0.505697
6	-0.598908
7	-0.684697
8	-0.761588
9	-0.829006
10	-0.887180
11	-0.936881
12	-0.979143
13	-1.015055
14	-1.045629
15	-1.071753
16	-1.094172
17	-1.113497
18	-1.130229
19	-1.144776
20	-1.157470
21	-1.168583
22	-1.178342
23	-1.186934
24	-1.194517
25	-1.201222
26	-1.207162
27	-1.212433
28	-1.217118
29	-1.221287
30	-1.225001
31	-1.228314
32	-1.231271
33	-1.233914
34	-1.236278
35	-1.238393
36	-1.240287
37	-1.241984
38	-1.243505
39	-1.244870
40	-1.246094
41	-1.247194
42	-1.248180
43	-1.249067
44	-1.249863
45	-1.250579
46	-1.251223
47	-1.251801
48	-1.252321
49	-1.252789
50	-1.253210
51	-1.253589
52	-1.253930
53	-1.254236
54	-1.254512
55	-1.254761
56	-1.254984
57	-1.255186
58	-1.255367
59	-1.255530
60	-1.255677
61	-1.255809
62	-1.255928
63	-1.256036
64	-1.256132
65	-1.256219
66	-1.256297
67	-1.256368
68	-1.256431
69	-1.256489
70	-1.256540
71	-1.256587
72	-1.256628
73	-1.256666
74	-1.256700
75	-1.256731
76	-1.256758
77	-1.256783
78	-1.256805
79	-1.256825
80	-1.256843
81	-1.256860
82	-1.256874
83	-1.256888
84	-1.256900
85	-1.256910
86	-1.256920
87	-1.256929
88	-1.256937
89	-1.256944
90	-1.256950
91	-1.256944
92	-1.256937
93	-1.256929
94	-1.256920
95	-1.256910
96	-1.256900
97	-1.256888
98	-1.256874
99	-1.256860
100	-1.256843
101	-1.256825
102	-1.256805
103	-1.256783
104	-1.256758
105	-1.256731
106	-1.256700
107	-1.256666
108	-1.256628
109	-1.256587
110	-1.256540
111	-1.256489
112	-1.256431
113	-1.256368
114	-1.256297
115	-1.256219
116	-1.256132
117	-1.256036
118	-1.255928
119	-1.255809
120	-1.255677
121	-1.255530
122	-1.255367
123	-1.255186
124	-1.254984
125	-1.254761
126	-1.254512
127	-1.254236
128	-1.253930
129	-1.253589
130	-1.253210
131	-1.252789
132	-1.252321
133	-1.251801
134	-1.251223
135	-1.250579
136	-1.249863
137	-1.249067
138	-1.248180
139	-1.247194
140	-1.246094
141	-1.244870
142	-1.243505
143	-1.241984
144	-1.240287
145	-1.238393
146	-1.236278
147	-1.233914
148	-1.231271
149	-1.228314
150	-1.225001
151	-1.221287
152	-1.217118
153	-1.212433
154	-1.207162
155	-1.201222
156	-1.194517
157	-1.186934
158	-1.178342
159	-1.168583
160	-1.157470
161	-1.144776
162	-1.130229
163	-1.113497
164	-1.094172
165	-1.071753
166	-1.045629
167	-1.015055
168	-0.979143
169	-0.936881
170	-0.887180
171	-0.829006
172	-0.761588
173	-0.684697
174	-0.598908
175	-0.505697
176	-0.407244
177	-0.305925
178	-0.203697
179	-0.101659
180	-0.000000
181	0.101659
182	0.203697
183	0.305925
184	0.407244
185	0.505697
186	0.598908
187	0.684697
188	0.761588
189	0.829006
190	0.887180
191	0.936881
192	0.979143
193	1.015055
194	1.045629
195	1.071753
196	1.094172
197	1.113497
198	1.130229
199	1.144776
200	1.157470
201	1.168583
202	1.178342
203	1.186934
204	1.194517
205	1.201222
206	1.207162
207	1.212433
208	1.217118
209	1.221287
210	1.225001
211	1.228314
212	1.231271
213	1.233914
214	1.236278
215	1.238393
216	1.240287
217	1.241984
218	1.243505
219	1.244870
220	1.246094
221	1.247194
222	1.248180
223	1.249067
224	1.249863
225	1.250579
226	1.251223
227	1.251801
228	1.252321
229	1.252789
230	1.253210
231	1.253589
232	1.253930
233	1.254236
234	1.254512
235	1.254761
236	1.254984
237	1.255186
238	1.255367
239	1.255530
240	1.255677
241	1.255809
242	1.255928
243	1.256036
244	1.256132
245	1.256219
246	1.256297
247	1.256368
248	1.256431
249	1.256489
250	1.256540
251	1.256587
252	1.256628
253	1.256666
254	1.256700
255	1.256731
256	1.256758
257	1.256783
258	1.256805
259	1.256825
260	1.256843
261	1.256860
262	1.256874
263	1.256888
264	1.256900
265	1.256910
266	1.256920
267	1.256929
268	1.256937
269	1.256944
270	1.256950
271	1.256944
272	1.256937
273	1.256929
274	1.256920
275	1.256910
276	1.256900
277	1.256888
278	1.256874
279	1.256860
280	1.256843
281	1.256825
282	1.256805
283	1.256783
284	1.256758
285	1.256731
286	1.256700
287	1.256666
288	1.256628
289	1.256587
290	1.256540
291	1.256489
292	1.256431
293	1.256368
294	1.256297
295	1.256219
296	1.256132
297	1.256036
298	1.255928
299	1.255809
300	1.255677
301	1.255530
302	1.255367
303	1.255186
304	1.254984
305	1.254761
306	1.254512
307	1.254236
308	1.253930
309	1.253589
310	1.253210
311	1.252789
312	1.252321
313	1.251801
314	1.251223
315	1.250579
316	1.249863
317	1.249067
318	1.248180
319	1.247194
320	1.246094
321	1.244870
322	1.243505
323	1.241984
324	1.240287
325	1.238393
326	1.236278
327	1.233914
328	1.231271
329	1.228314
330	1.225001
331	1.221287
332	1.217118
333	1.212433
334	1.207162
335	1.201222
336	1.194517
337	1.186934
338	1.178342
339	1.168583
340	1.157470
341	1.144776
342	1.130229
343	1.113497
344	1.094172
345	1.071753
346	1.045629
347	1.015055
348	0.979143
349	0.936881
350	0.887180
351	0.829006
352	0.761588
353	0.684697
354	0.598908
355	0.505697
356	0.407244
357	0.305925
358	0.203697
359	0.101659
360	0.000000
One-Conductor Voltage
0	1.225001
1	1.119628
2	1.013421
3	0.906508
4	0.799918
5	0.695525
6	0.595609
7	0.502237
8	0.416754
9	0.339577
10	0.270290
11	0.207895
12	0.151086
13	0.098442
14	0.048542
15	0.000000
16	-0.048542
17	-0.098442
18	-0.151086
19	-0.207895
20	-0.270290
21	-0.339577
22	-0.416754
23	-0.502237
24	-0.595609
25	-0.695525
26	-0.799918
27	-0.906508
28	-1.013421
29	-1.119628
30	-1.225001
31	-1.329973
32	-1.434969
33	-1.539839
34	-1.643521
35	-1.744090
36	-1.839195
37	-1.926681
38	-2.005094
39	-2.073876
40	-2.133274
41	-2.184074
42	-2.227324
43	-2.264122
44	-2.295493
45	-2.322333
46	-2.345394
47	-2.365298
48	-2.382550
49	-2.397565
50	-2.410680
51	-2.422172
52	-2.432272
53	-2.441171
54	-2.449029
55	-2.455982
56	-2.462146
57	-2.467619
58	-2.472485
59	-2.476817
60	-2.480678
61	-2.484123
62	-2.487200
63	-2.489950
64	-2.492410
65	-2.494612
66	-2.496584
67	-2.498352
68	-2.499937
69	-2.501359
70	-2.502635
71	-2.503780
72	-2.504809
73	-2.505733
74	-2.506563
75	-2.507310
76	-2.507981
77	-2.508584
78	-2.509127
79	-2.509615
80	-2.510054
81	-2.510449
82	-2.510804
83	-2.511124
84	-2.511412
85	-2.511671
86	-2.511904
87	-2.512114
88	-2.512303
89	-2.512474
90	-2.512627
91	-2.512753
92	-2.512865
93	-2.512964
94	-2.513052
95	-2.513129
96	-2.513197
97	-2.513256
98	-2.513306
99	-2.513348
100	-2.513384
101	-2.513412
102	-2.513434
103	-2.513449
104	-2.513458
105	-2.513461
106	-2.513458
107	-2.513449
108	-2.513434
109	-2.513412
110	-2.513384
111	-2.513348
112	-2.513306
113	-2.513256
114	-2.513197
115	-2.513129
116	-2.513052
117	-2.512964
118	-2.512865
119	-2.512753
120	-2.512627
121	-2.512474
122	-2.512303
123	-2.512114
124	-2.511904
125	-2.511671
126	-2.511412
127	-2.511124
128	-2.510804
129	-2.510449
130	-2.510054
131	-2.509615
132	-2.509127
133	-2.508584
134	-2.507981
135	-2.507310
136	-2.506563
137	-2.505733
138	-2.504809
139	-2.503780
140	-2.502635
141	-2.501359
142	-2.499937
143	-2.498352
144	-2.496584
145	-2.494612
146	-2.492410
147	-2.489950
148	-2.487200
149	-2.484123
150	-2.480678
151	-2.476817
152	-2.472485
153	-2.467619
154	-2.462146
155	-2.455982
156	-2.449029
157	-2.441171
158	-2.432272
159	-2.422172
160	-2.410680
161	-2.397565
162	-2.382550
163	-2.365298
164	-2.345394
165	-2.322333
166	-2.295493
167	-2.264122
168	-2.227324
169	-2.184074
170	-2.133274
171	-2.073876
172	-2.005094
173	-1.926681
174	-1.839195
175	-1.744090
176	-1.643521
177	-1.539839
178	-1.434969
179	-1.329973
180	-1.225001
181	-1.119628
182	-1.013421
183	-0.906508
184	-0.799918
185	-0.695525
186	-0.595609
187	-0.502237
188	-0.416754
189	-0.339577
190	-0.270290
191	-0.207895
192	-0.151086
193	-0.098442
194	-0.048542
195	0.000000
196	0.048542
197	0.098442
198	0.151086
199	0.207895
200	0.270290
201	0.339577
202	0.416754
203	0.502237
204	0.595609
205	0.695525
206	0.799918
207	0.906508
208	1.013421
209	1.119628
210	1.225001
211	1.329973
212	1.434969
213	1.539839
214	1.643521
215	1.744090
216	1.839195
217	1.926681
218	2.005094
219	2.073876
220	2.133274
221	2.184074
222	2.227324
223	2.264122
224	2.295493
225	2.322333
226	2.345394
227	2.365298
228	2.382550
229	2.397565
230	2.410680
231	2.422172
232	2.432272
233	2.441171
234	2.449029
235	2.455982
236	2.462146
237	2.467619
238	2.472485
239	2.476817
240	2.480678
241	2.484123
242	2.487200
243	2.489950
244	2.492410
245	2.494612
246	2.496584
247	2.498352
248	2.499937
249	2.501359
250	2.502635
251	2.503780
252	2.504809
253	2.505733
254	2.506563
255	2.507310
256	2.507981
257	2.508584
258	2.509127
259	2.509615
260	2.510054
261	2.510449
262	2.510804
263	2.511124
264	2.511412
265	2.511671
266	2.511904
267	2.512114
268	2.512303
269	2.512474
270	2.512627
271	2.512753
272	2.512865
273	2.512964
274	2.513052
275	2.513129
276	2.513197
277	2.513256
278	2.513306
279	2.513348
280	2.513384
281	2.513412
282	2.513434
283	2.513449
284	2.513458
285	2.513461
286	2.513458
287	2.513449
288	2.513434
289	2.513412
290	2.513384
291	2.513348
292	2.513306
293	2.513256
294	2.513197
295	2.513129
296	2.513052
297	2.512964
298	2.512865
299	2.512753
300	2.512627
301	2.512474
302	2.512303
303	2.512114
304	2.511904
305	2.511671
306	2.511412
307	2.511124
308	2.510804
309	2.510449
310	2.510054
311	2.509615
312	2.509127
313	2.508584
314	2.507981
315	2.507310
316	2.506563
317	2.505733
318	2.504809
319	2.503780
320	2.502635
321	2.501359
322	2.499937
323	2.498352
324	2.496584
325	2.494612
326	2.492410
327	2.489950
328	2.487200
329	2.484123
330	2.480678
331	2.476817
332	2.472485
333	2.467619
334	2.462146
335	2.455982
336	2.449029
337	2.441171
338	2.432272
339	2.422172
340	2.410680
341	2.397565
342	2.382550
343	2.365298
344	2.345394
345	2.322333
346	2.295493
347	2.264122
348	2.227324
349	2.184074
350	2.133274
351	2.073876
352	2.005094
353	1.926681
354	1.839195
355	1.744090
356	1.643521
357	1.539839
358	1.434969
359	1.329973
360	1.225001
One-Turn Voltage
