Winding Currents under Load 
Air-Gap Position (elec. degrees)
Current (A)
0	33.2678
1	33.5874
2	33.8981
3	34.2007
4	34.4956
5	34.784
6	35.0667
7	35.3445
8	35.6179
9	35.8869
10	36.1517
11	36.4129
12	36.6692
13	36.9196
14	37.1629
15	37.3977
16	37.6221
17	37.8342
18	38.0321
19	38.214
20	38.3784
21	38.5246
22	38.6511
23	38.7591
24	38.8488
25	38.9201
26	38.973
27	39.0074
28	39.0221
29	39.0183
30	38.9966
31	38.9584
32	38.9053
33	38.8392
34	38.7621
35	38.6756
36	38.5813
37	38.4805
38	38.374
39	38.2635
40	38.1479
41	38.0273
42	37.9016
43	37.7701
44	37.6323
45	37.4872
46	37.3336
47	37.1713
48	36.9978
49	36.811
50	36.6108
51	36.3967
52	36.1683
53	35.9257
54	35.6689
55	35.398
56	35.1128
57	34.8132
58	34.4994
59	34.1714
60	33.8298
61	33.4745
62	33.1076
63	32.7315
64	32.3465
65	31.9539
66	31.5548
67	31.15
68	30.7403
69	30.326
70	29.9076
71	29.4859
72	29.0601
73	28.63
74	28.1951
75	27.7545
76	27.3076
77	26.8533
78	26.3907
79	25.9188
80	25.4371
81	24.945
82	24.4417
83	23.928
84	23.4039
85	22.8694
86	22.3245
87	21.7692
88	21.2026
89	20.6255
90	20.0382
91	19.4414
92	18.8359
93	18.2227
94	17.6029
95	16.9773
96	16.3469
97	15.7123
98	15.0742
99	14.4335
100	13.7899
101	13.1439
102	12.4957
103	11.8454
104	11.1933
105	10.5395
106	9.88414
107	9.22757
108	8.56952
109	7.90974
110	7.24858
111	6.58604
112	5.92213
113	5.25684
114	4.59018
115	3.92214
116	3.25272
117	2.58192
118	1.90974
119	1.23618
120	0.561274
121	-0.115018
122	-0.792582
123	-1.47134
124	-2.15124
125	-2.83217
126	-3.51401
127	-4.19657
128	-4.87963
129	-5.56295
130	-6.24617
131	-6.92907
132	-7.61106
133	-8.29155
134	-8.96986
135	-9.64515
136	-10.3165
137	-10.9829
138	-11.6434
139	-12.2971
140	-12.9433
141	-13.5815
142	-14.2114
143	-14.8331
144	-15.4468
145	-16.0526
146	-16.6504
147	-17.2402
148	-17.8214
149	-18.3947
150	-18.9603
151	-19.5189
152	-20.0713
153	-20.6184
154	-21.1611
155	-21.7001
156	-22.2363
157	-22.77
158	-23.3017
159	-23.8319
160	-24.3598
161	-24.8853
162	-25.4078
163	-25.9266
164	-26.4409
165	-26.9495
166	-27.4513
167	-27.9456
168	-28.4302
169	-28.9031
170	-29.364
171	-29.8124
172	-30.248
173	-30.6707
174	-31.0806
175	-31.4776
176	-31.8619
177	-32.2332
178	-32.5915
179	-32.9371
180	-33.2704
181	-33.5913
182	-33.902
183	-34.2046
184	-34.4996
185	-34.7879
186	-35.0706
187	-35.3484
188	-35.6218
189	-35.8908
190	-36.1556
191	-36.4168
192	-36.673
193	-36.9234
194	-37.1668
195	-37.4015
196	-37.6259
197	-37.838
198	-38.0359
199	-38.2178
200	-38.3822
201	-38.5284
202	-38.6549
203	-38.7629
204	-38.8525
205	-38.9239
206	-38.9768
207	-39.0112
208	-39.0259
209	-39.022
210	-39.0004
211	-38.9622
212	-38.909
213	-38.843
214	-38.7658
215	-38.6793
216	-38.585
217	-38.4842
218	-38.3777
219	-38.2672
220	-38.1516
221	-38.031
222	-37.9053
223	-37.7738
224	-37.636
225	-37.4909
226	-37.3373
227	-37.175
228	-37.0015
229	-36.8146
230	-36.6144
231	-36.4003
232	-36.172
233	-35.9294
234	-35.6726
235	-35.4016
236	-35.1164
237	-34.8169
238	-34.503
239	-34.1751
240	-33.8334
241	-33.4781
242	-33.1112
243	-32.7351
244	-32.3501
245	-31.9575
246	-31.5584
247	-31.1536
248	-30.7439
249	-30.3297
250	-29.9112
251	-29.4895
252	-29.0637
253	-28.6336
254	-28.1987
255	-27.7581
256	-27.3112
257	-26.8569
258	-26.3942
259	-25.9224
260	-25.4406
261	-24.9485
262	-24.4452
263	-23.9315
264	-23.4074
265	-22.8729
266	-22.3281
267	-21.7727
268	-21.2061
269	-20.629
270	-20.0417
271	-19.4448
272	-18.8393
273	-18.2262
274	-17.6063
275	-16.9808
276	-16.3503
277	-15.7157
278	-15.0776
279	-14.4369
280	-13.7933
281	-13.1473
282	-12.499
283	-11.8488
284	-11.1967
285	-10.5429
286	-9.88749
287	-9.2309
288	-8.57284
289	-7.91306
290	-7.25189
291	-6.58934
292	-5.92542
293	-5.26012
294	-4.59345
295	-3.9254
296	-3.25597
297	-2.58516
298	-1.91296
299	-1.2394
300	-0.564479
301	0.111825
302	0.7894
303	1.46817
304	2.14808
305	2.82903
306	3.51087
307	4.19344
308	4.87652
309	5.55984
310	6.24308
311	6.92599
312	7.60799
313	8.2885
314	8.96682
315	9.64212
316	10.3135
317	10.9799
318	11.6404
319	12.2941
320	12.9403
321	13.5786
322	14.2084
323	14.8302
324	15.4439
325	16.0497
326	16.6475
327	17.2373
328	17.8186
329	18.3918
330	18.9575
331	19.5161
332	20.0685
333	20.6156
334	21.1582
335	21.6973
336	22.2335
337	22.7673
338	23.2989
339	23.8291
340	24.3571
341	24.8825
342	25.405
343	25.9239
344	26.4382
345	26.9468
346	27.4486
347	27.9429
348	28.4275
349	28.9004
350	29.3614
351	29.8098
352	30.2454
353	30.6681
354	31.078
355	31.475
356	31.8593
357	32.2306
358	32.5889
359	32.9345
360	33.2678
Phase Current ia
0	-33.8304
1	-33.4747
2	-33.1078
3	-32.7317
4	-32.3467
5	-31.9541
6	-31.555
7	-31.1502
8	-30.7405
9	-30.3262
10	-29.9077
11	-29.486
12	-29.0603
13	-28.6302
14	-28.1952
15	-27.7547
16	-27.3077
17	-26.8534
18	-26.3908
19	-25.919
20	-25.4372
21	-24.9451
22	-24.4418
23	-23.9281
24	-23.404
25	-22.8695
26	-22.3246
27	-21.7693
28	-21.2027
29	-20.6256
30	-20.0383
31	-19.4414
32	-18.8359
33	-18.2228
34	-17.6029
35	-16.9774
36	-16.3469
37	-15.7123
38	-15.0742
39	-14.4335
40	-13.7899
41	-13.1439
42	-12.4956
43	-11.8454
44	-11.1933
45	-10.5395
46	-9.88411
47	-9.22753
48	-8.56947
49	-7.9097
50	-7.24853
51	-6.58598
52	-5.92206
53	-5.25677
54	-4.5901
55	-3.92206
56	-3.25263
57	-2.58182
58	-1.90963
59	-1.23607
60	-0.561157
61	0.115142
62	0.792711
63	1.47147
64	2.15138
65	2.83232
66	3.51416
67	4.19673
68	4.8798
69	5.56312
70	6.24635
71	6.92925
72	7.61124
73	8.29175
74	8.97006
75	9.64535
76	10.3167
77	10.9831
78	11.6436
79	12.2973
80	12.9435
81	13.5818
82	14.2116
83	14.8333
84	15.4471
85	16.0529
86	16.6506
87	17.2404
88	17.8217
89	18.395
90	18.9606
91	19.5192
92	20.0716
93	20.6187
94	21.1614
95	21.7004
96	22.2366
97	22.7703
98	23.302
99	23.8322
100	24.3602
101	24.8856
102	25.4081
103	25.9269
104	26.4412
105	26.9499
106	27.4516
107	27.9459
108	28.4305
109	28.9034
110	29.3643
111	29.8128
112	30.2484
113	30.671
114	31.0809
115	31.478
116	31.8622
117	32.2335
118	32.5918
119	32.9374
120	33.2707
121	33.5917
122	33.9023
123	34.205
124	34.4999
125	34.7882
126	35.0709
127	35.3488
128	35.6221
129	35.8912
130	36.1559
131	36.4171
132	36.6734
133	36.9238
134	37.1671
135	37.4019
136	37.6263
137	37.8384
138	38.0362
139	38.2181
140	38.3826
141	38.5287
142	38.6552
143	38.7632
144	38.8529
145	38.9242
146	38.9771
147	39.0115
148	39.0263
149	39.0224
150	39.0007
151	38.9625
152	38.9094
153	38.8433
154	38.7661
155	38.6797
156	38.5854
157	38.4846
158	38.3781
159	38.2676
160	38.152
161	38.0314
162	37.9056
163	37.7742
164	37.6364
165	37.4913
166	37.3377
167	37.1753
168	37.0019
169	36.815
170	36.6148
171	36.4007
172	36.1724
173	35.9298
174	35.673
175	35.402
176	35.1168
177	34.8173
178	34.5034
179	34.1754
180	33.8338
181	33.4785
182	33.1116
183	32.7355
184	32.3505
185	31.9579
186	31.5588
187	31.154
188	30.7443
189	30.3301
190	29.9116
191	29.4899
192	29.0642
193	28.6341
194	28.1991
195	27.7586
196	27.3116
197	26.8573
198	26.3947
199	25.9228
200	25.4411
201	24.949
202	24.4457
203	23.932
204	23.4079
205	22.8734
206	22.3285
207	21.7732
208	21.2066
209	20.6295
210	20.0422
211	19.4453
212	18.8398
213	18.2267
214	17.6068
215	16.9813
216	16.3508
217	15.7163
218	15.0782
219	14.4374
220	13.7939
221	13.1478
222	12.4996
223	11.8493
224	11.1972
225	10.5434
226	9.88805
227	9.23147
228	8.57341
229	7.91363
230	7.25247
231	6.58992
232	5.926
233	5.26071
234	4.59404
235	3.926
236	3.25657
237	2.58576
238	1.91357
239	1.24001
240	0.565094
241	-0.111206
242	-0.788777
243	-1.46754
244	-2.14745
245	-2.82839
246	-3.51023
247	-4.1928
248	-4.87588
249	-5.5592
250	-6.24243
251	-6.92534
252	-7.60733
253	-8.28784
254	-8.96615
255	-9.64145
256	-10.3128
257	-10.9792
258	-11.6397
259	-12.2934
260	-12.9396
261	-13.5779
262	-14.2077
263	-14.8295
264	-15.4432
265	-16.049
266	-16.6468
267	-17.2366
268	-17.8179
269	-18.3911
270	-18.9568
271	-19.5154
272	-20.0678
273	-20.6149
274	-21.1575
275	-21.6966
276	-22.2328
277	-22.7665
278	-23.2982
279	-23.8284
280	-24.3564
281	-24.8818
282	-25.4043
283	-25.9231
284	-26.4374
285	-26.9461
286	-27.4479
287	-27.9422
288	-28.4268
289	-28.8997
290	-29.3606
291	-29.8091
292	-30.2447
293	-30.6674
294	-31.0772
295	-31.4743
296	-31.8585
297	-32.2298
298	-32.5882
299	-32.9337
300	-33.2671
301	-33.588
302	-33.8987
303	-34.2014
304	-34.4963
305	-34.7846
306	-35.0674
307	-35.3452
308	-35.6185
309	-35.8876
310	-36.1523
311	-36.4136
312	-36.6698
313	-36.9202
314	-37.1636
315	-37.3983
316	-37.6227
317	-37.8348
318	-38.0327
319	-38.2146
320	-38.379
321	-38.5252
322	-38.6517
323	-38.7597
324	-38.8494
325	-38.9207
326	-38.9736
327	-39.0081
328	-39.0228
329	-39.0189
330	-38.9972
331	-38.959
332	-38.9059
333	-38.8398
334	-38.7627
335	-38.6762
336	-38.5819
337	-38.4811
338	-38.3746
339	-38.2641
340	-38.1485
341	-38.0279
342	-37.9022
343	-37.7707
344	-37.6329
345	-37.4878
346	-37.3342
347	-37.1719
348	-36.9984
349	-36.8116
350	-36.6114
351	-36.3973
352	-36.1689
353	-35.9263
354	-35.6695
355	-35.3985
356	-35.1133
357	-34.8138
358	-34.5
359	-34.172
360	-33.8304
Phase Current ib
0	0.562612
1	-0.112684
2	-0.79026
3	-1.46903
4	-2.14894
5	-2.82989
6	-3.51174
7	-4.19431
8	-4.87739
9	-5.56072
10	-6.24396
11	-6.92686
12	-7.60887
13	-8.28938
14	-8.96769
15	-9.643
16	-10.3144
17	-10.9808
18	-11.6413
19	-12.295
20	-12.9412
21	-13.5795
22	-14.2093
23	-14.831
24	-15.4448
25	-16.0506
26	-16.6484
27	-17.2382
28	-17.8195
29	-18.3927
30	-18.9584
31	-19.517
32	-20.0694
33	-20.6165
34	-21.1591
35	-21.6982
36	-22.2344
37	-22.7681
38	-23.2998
39	-23.83
40	-24.358
41	-24.8834
42	-25.4059
43	-25.9247
44	-26.439
45	-26.9477
46	-27.4495
47	-27.9438
48	-28.4284
49	-28.9013
50	-29.3622
51	-29.8107
52	-30.2463
53	-30.669
54	-31.0788
55	-31.4759
56	-31.8601
57	-32.2314
58	-32.5898
59	-32.9353
60	-33.2686
61	-33.5896
62	-33.9003
63	-34.2029
64	-34.4979
65	-34.7862
66	-35.0689
67	-35.3467
68	-35.6201
69	-35.8892
70	-36.1539
71	-36.4151
72	-36.6714
73	-36.9218
74	-37.1651
75	-37.3999
76	-37.6243
77	-37.8364
78	-38.0343
79	-38.2161
80	-38.3806
81	-38.5268
82	-38.6533
83	-38.7613
84	-38.851
85	-38.9223
86	-38.9752
87	-39.0096
88	-39.0243
89	-39.0205
90	-38.9988
91	-38.9606
92	-38.9075
93	-38.8414
94	-38.7642
95	-38.6777
96	-38.5835
97	-38.4827
98	-38.3762
99	-38.2657
100	-38.1501
101	-38.0295
102	-37.9037
103	-37.7723
104	-37.6345
105	-37.4894
106	-37.3358
107	-37.1735
108	-37
109	-36.8131
110	-36.6129
111	-36.3988
112	-36.1705
113	-35.9279
114	-35.6711
115	-35.4001
116	-35.1149
117	-34.8154
118	-34.5016
119	-34.1736
120	-33.832
121	-33.4766
122	-33.1098
123	-32.7336
124	-32.3486
125	-31.9561
126	-31.5569
127	-31.1522
128	-30.7425
129	-30.3282
130	-29.9097
131	-29.488
132	-29.0623
133	-28.6322
134	-28.1973
135	-27.7567
136	-27.3098
137	-26.8555
138	-26.3928
139	-25.921
140	-25.4393
141	-24.9472
142	-24.4439
143	-23.9301
144	-23.4061
145	-22.8716
146	-22.3267
147	-21.7714
148	-21.2048
149	-20.6277
150	-20.0404
151	-19.4436
152	-18.8381
153	-18.2249
154	-17.6051
155	-16.9795
156	-16.3491
157	-15.7145
158	-15.0764
159	-14.4357
160	-13.7921
161	-13.1461
162	-12.4979
163	-11.8476
164	-11.1955
165	-10.5417
166	-9.88635
167	-9.22977
168	-8.57172
169	-7.91195
170	-7.25079
171	-6.58825
172	-5.92434
173	-5.25905
174	-4.59239
175	-3.92435
176	-3.25493
177	-2.58412
178	-1.91194
179	-1.23839
180	-0.563475
181	0.112819
182	0.790384
183	1.46914
184	2.14904
185	2.82998
186	3.51182
187	4.19438
188	4.87745
189	5.56076
190	6.24399
191	6.92689
192	7.60888
193	8.28938
194	8.96768
195	9.64297
196	10.3143
197	10.9807
198	11.6412
199	12.2949
200	12.9411
201	13.5794
202	14.2092
203	14.8309
204	15.4447
205	16.0505
206	16.6482
207	17.238
208	17.8193
209	18.3926
210	18.9582
211	19.5168
212	20.0692
213	20.6163
214	21.1589
215	21.698
216	22.2342
217	22.7679
218	23.2996
219	23.8298
220	24.3578
221	24.8832
222	25.4057
223	25.9245
224	26.4388
225	26.9475
226	27.4492
227	27.9435
228	28.4281
229	28.901
230	29.362
231	29.8104
232	30.246
233	30.6687
234	31.0785
235	31.4756
236	31.8598
237	32.2311
238	32.5895
239	32.935
240	33.2683
241	33.5893
242	33.9
243	34.2026
244	34.4976
245	34.7859
246	35.0686
247	35.3464
248	35.6198
249	35.8889
250	36.1536
251	36.4148
252	36.6711
253	36.9215
254	37.1648
255	37.3996
256	37.624
257	37.8361
258	38.034
259	38.2158
260	38.3803
261	38.5264
262	38.6529
263	38.761
264	38.8506
265	38.9219
266	38.9749
267	39.0093
268	39.024
269	39.0201
270	38.9984
271	38.9602
272	38.9071
273	38.841
274	38.7639
275	38.6774
276	38.5831
277	38.4823
278	38.3758
279	38.2653
280	38.1497
281	38.0291
282	37.9033
283	37.7719
284	37.6341
285	37.489
286	37.3354
287	37.1731
288	36.9996
289	36.8127
290	36.6125
291	36.3984
292	36.1701
293	35.9275
294	35.6707
295	35.3997
296	35.1145
297	34.815
298	34.5011
299	34.1731
300	33.8315
301	33.4762
302	33.1093
303	32.7332
304	32.3482
305	31.9556
306	31.5565
307	31.1517
308	30.742
309	30.3278
310	29.9093
311	29.4876
312	29.0618
313	28.6317
314	28.1968
315	27.7562
316	27.3093
317	26.855
318	26.3923
319	25.9205
320	25.4387
321	24.9466
322	24.4433
323	23.9296
324	23.4055
325	22.871
326	22.3262
327	21.7708
328	21.2042
329	20.6271
330	20.0398
331	19.4429
332	18.8374
333	18.2243
334	17.6044
335	16.9789
336	16.3484
337	15.7138
338	15.0757
339	14.435
340	13.7914
341	13.1454
342	12.4971
343	11.8469
344	11.1948
345	10.541
346	9.8856
347	9.22901
348	8.57096
349	7.91118
350	7.25001
351	6.58746
352	5.92354
353	5.25824
354	4.59157
355	3.92352
356	3.25409
357	2.58328
358	1.91109
359	1.23753
360	0.562612
Phase Current ic
