Winding Voltages under Load 
Air-Gap Position (elec. degrees)
Voltage (V)
0	-113.481
1	-105.208
2	-96.7924
3	-88.2054
4	-79.4212
5	-70.4083
6	-61.1269
7	-51.528
8	-41.5417
9	-31.1102
10	-20.1403
11	-8.53453
12	3.80786
13	16.9758
14	31.0241
15	45.9467
16	61.6568
17	77.986
18	94.7134
19	111.616
20	128.534
21	145.382
22	162.158
23	178.897
24	195.616
25	212.272
26	228.725
27	244.771
28	260.183
29	274.766
30	288.401
31	301.054
32	312.76
33	323.599
34	333.669
35	343.072
36	351.892
37	360.225
38	368.128
39	375.654
40	382.846
41	389.739
42	396.36
43	402.734
44	408.867
45	414.794
46	420.528
47	426.057
48	431.399
49	436.559
50	441.539
51	446.342
52	450.968
53	455.416
54	459.682
55	463.764
56	467.656
57	471.351
58	474.849
59	478.122
60	481.163
61	483.948
62	486.476
63	488.713
64	490.631
65	492.195
66	493.363
67	494.081
68	494.277
69	493.889
70	492.823
71	490.976
72	488.246
73	484.541
74	479.802
75	474.034
76	467.319
77	459.825
78	451.768
79	443.369
80	434.787
81	426.102
82	417.316
83	408.391
84	399.305
85	390.102
86	380.918
87	371.956
88	363.441
89	355.563
90	348.442
91	342.109
92	336.527
93	331.614
94	327.27
95	323.393
96	319.895
97	316.68
98	313.689
99	310.867
100	308.169
101	305.561
102	303.011
103	300.497
104	298.009
105	295.512
106	292.992
107	290.458
108	287.894
109	285.293
110	282.652
111	279.967
112	277.238
113	274.466
114	271.652
115	268.8
116	265.915
117	263.004
118	260.066
119	257.129
120	254.2
121	251.303
122	248.439
123	245.642
124	242.94
125	240.369
126	237.972
127	235.801
128	233.93
129	232.42
130	231.368
131	230.876
132	231.047
133	231.975
134	233.717
135	236.272
136	239.557
137	243.406
138	247.604
139	251.93
140	256.228
141	260.418
142	264.501
143	268.515
144	272.483
145	276.363
146	280.022
147	283.257
148	285.847
149	287.6
150	288.402
151	288.221
152	287.097
153	285.113
154	282.374
155	278.982
156	275.026
157	270.608
158	265.786
159	260.618
160	255.152
161	249.425
162	243.47
163	237.314
164	230.967
165	224.469
166	217.835
167	211.059
168	204.16
169	197.149
170	190.031
171	182.812
172	175.497
173	168.087
174	160.584
175	152.987
176	145.295
177	137.504
178	129.618
179	121.611
180	113.482
181	105.208
182	96.7931
183	88.2061
184	79.4219
185	70.409
186	61.1276
187	51.5287
188	41.5423
189	31.1109
190	20.141
191	8.53512
192	-3.80731
193	-16.9753
194	-31.0236
195	-45.9463
196	-61.6565
197	-77.9857
198	-94.7132
199	-111.616
200	-128.534
201	-145.382
202	-162.158
203	-178.897
204	-195.616
205	-212.272
206	-228.725
207	-244.772
208	-260.183
209	-274.766
210	-288.402
211	-301.054
212	-312.76
213	-323.599
214	-333.67
215	-343.073
216	-351.892
217	-360.226
218	-368.129
219	-375.654
220	-382.846
221	-389.739
222	-396.361
223	-402.734
224	-408.868
225	-414.795
226	-420.528
227	-426.058
228	-431.4
229	-436.56
230	-441.54
231	-446.343
232	-450.968
233	-455.416
234	-459.683
235	-463.765
236	-467.657
237	-471.351
238	-474.85
239	-478.122
240	-481.163
241	-483.948
242	-486.476
243	-488.713
244	-490.632
245	-492.196
246	-493.363
247	-494.081
248	-494.277
249	-493.89
250	-492.823
251	-490.977
252	-488.247
253	-484.541
254	-479.802
255	-474.034
256	-467.319
257	-459.825
258	-451.768
259	-443.369
260	-434.787
261	-426.102
262	-417.316
263	-408.391
264	-399.305
265	-390.102
266	-380.918
267	-371.956
268	-363.44
269	-355.563
270	-348.442
271	-342.109
272	-336.527
273	-331.614
274	-327.27
275	-323.393
276	-319.895
277	-316.68
278	-313.689
279	-310.867
280	-308.169
281	-305.561
282	-303.011
283	-300.497
284	-298.009
285	-295.512
286	-292.992
287	-290.458
288	-287.894
289	-285.293
290	-282.652
291	-279.967
292	-277.238
293	-274.466
294	-271.652
295	-268.8
296	-265.915
297	-263.004
298	-260.066
299	-257.129
300	-254.2
301	-251.303
302	-248.439
303	-245.642
304	-242.94
305	-240.369
306	-237.972
307	-235.801
308	-233.93
309	-232.42
310	-231.368
311	-230.876
312	-231.047
313	-231.975
314	-233.717
315	-236.273
316	-239.557
317	-243.407
318	-247.604
319	-251.93
320	-256.229
321	-260.418
322	-264.501
323	-268.515
324	-272.483
325	-276.363
326	-280.021
327	-283.257
328	-285.847
329	-287.6
330	-288.401
331	-288.22
332	-287.096
333	-285.113
334	-282.373
335	-278.981
336	-275.026
337	-270.607
338	-265.785
339	-260.618
340	-255.151
341	-249.425
342	-243.47
343	-237.313
344	-230.967
345	-224.468
346	-217.834
347	-211.058
348	-204.16
349	-197.148
350	-190.03
351	-182.812
352	-175.496
353	-168.087
354	-160.583
355	-152.987
356	-145.294
357	-137.503
358	-129.617
359	-121.611
360	-113.481
Phase Voltage va
0	367.682
1	378.74
2	389.683
3	400.507
4	411.21
5	421.787
6	432.236
7	442.553
8	452.735
9	462.779
10	472.682
11	482.442
12	492.054
13	501.516
14	510.826
15	519.98
16	528.976
17	537.811
18	546.481
19	554.986
20	563.321
21	571.484
22	579.474
23	587.287
24	594.921
25	602.374
26	609.644
27	616.727
28	623.623
29	630.329
30	636.843
31	643.163
32	649.287
33	655.213
34	660.94
35	666.465
36	671.788
37	676.905
38	681.817
39	686.521
40	691.015
41	695.299
42	699.372
43	703.231
44	706.876
45	710.306
46	713.52
47	716.516
48	719.294
49	721.852
50	724.191
51	726.31
52	728.207
53	729.882
54	731.335
55	732.565
56	733.572
57	734.355
58	734.915
59	735.251
60	735.363
61	735.251
62	734.915
63	734.355
64	733.572
65	732.565
66	731.335
67	729.882
68	728.207
69	726.31
70	724.191
71	721.852
72	719.294
73	716.516
74	713.52
75	710.306
76	706.876
77	703.231
78	699.372
79	695.299
80	691.015
81	686.521
82	681.817
83	676.905
84	671.788
85	666.465
86	660.94
87	655.213
88	649.287
89	643.163
90	636.843
91	630.329
92	623.623
93	616.727
94	609.644
95	602.374
96	594.921
97	587.287
98	579.474
99	571.484
100	563.321
101	554.986
102	546.481
103	537.811
104	528.976
105	519.98
106	510.826
107	501.516
108	492.054
109	482.442
110	472.682
111	462.779
112	452.735
113	442.553
114	432.236
115	421.787
116	411.21
117	400.507
118	389.683
119	378.74
120	367.682
121	356.511
122	345.232
123	333.848
124	322.362
125	310.778
126	299.099
127	287.329
128	275.472
129	263.531
130	251.509
131	239.411
132	227.24
133	214.999
134	202.694
135	190.326
136	177.9
137	165.421
138	152.891
139	140.314
140	127.694
141	115.036
142	102.343
143	89.6182
144	76.8664
145	64.0911
146	51.2963
147	38.4859
148	25.6638
149	12.8339
150	2.44427e-012
151	-12.8339
152	-25.6638
153	-38.4859
154	-51.2963
155	-64.0911
156	-76.8664
157	-89.6182
158	-102.343
159	-115.036
160	-127.694
161	-140.314
162	-152.891
163	-165.421
164	-177.9
165	-190.326
166	-202.694
167	-214.999
168	-227.24
169	-239.411
170	-251.509
171	-263.531
172	-275.472
173	-287.329
174	-299.099
175	-310.778
176	-322.362
177	-333.848
178	-345.232
179	-356.511
180	-367.682
181	-378.74
182	-389.683
183	-400.507
184	-411.21
185	-421.787
186	-432.236
187	-442.553
188	-452.735
189	-462.779
190	-472.682
191	-482.442
192	-492.054
193	-501.516
194	-510.826
195	-519.98
196	-528.976
197	-537.811
198	-546.481
199	-554.986
200	-563.321
201	-571.484
202	-579.474
203	-587.287
204	-594.921
205	-602.374
206	-609.644
207	-616.727
208	-623.623
209	-630.329
210	-636.843
211	-643.163
212	-649.287
213	-655.213
214	-660.94
215	-666.465
216	-671.788
217	-676.905
218	-681.817
219	-686.521
220	-691.015
221	-695.299
222	-699.372
223	-703.231
224	-706.876
225	-710.306
226	-713.52
227	-716.516
228	-719.294
229	-721.852
230	-724.191
231	-726.31
232	-728.207
233	-729.882
234	-731.335
235	-732.565
236	-733.572
237	-734.355
238	-734.915
239	-735.251
240	-735.363
241	-735.251
242	-734.915
243	-734.355
244	-733.572
245	-732.565
246	-731.335
247	-729.882
248	-728.207
249	-726.31
250	-724.191
251	-721.852
252	-719.294
253	-716.516
254	-713.52
255	-710.306
256	-706.876
257	-703.231
258	-699.372
259	-695.299
260	-691.015
261	-686.521
262	-681.817
263	-676.905
264	-671.788
265	-666.465
266	-660.94
267	-655.213
268	-649.287
269	-643.163
270	-636.843
271	-630.329
272	-623.623
273	-616.727
274	-609.644
275	-602.374
276	-594.921
277	-587.287
278	-579.474
279	-571.484
280	-563.321
281	-554.986
282	-546.481
283	-537.811
284	-528.976
285	-519.98
286	-510.826
287	-501.516
288	-492.054
289	-482.442
290	-472.682
291	-462.779
292	-452.735
293	-442.553
294	-432.236
295	-421.787
296	-411.21
297	-400.507
298	-389.683
299	-378.74
300	-367.682
301	-356.511
302	-345.232
303	-333.848
304	-322.362
305	-310.778
306	-299.099
307	-287.329
308	-275.472
309	-263.531
310	-251.509
311	-239.411
312	-227.24
313	-214.999
314	-202.694
315	-190.326
316	-177.9
317	-165.421
318	-152.891
319	-140.314
320	-127.694
321	-115.036
322	-102.343
323	-89.6182
324	-76.8664
325	-64.0911
326	-51.2963
327	-38.4859
328	-25.6638
329	-12.8339
330	-2.78533e-012
331	12.8339
332	25.6638
333	38.4859
334	51.2963
335	64.0911
336	76.8664
337	89.6182
338	102.343
339	115.036
340	127.694
341	140.314
342	152.891
343	165.421
344	177.9
345	190.326
346	202.694
347	214.999
348	227.24
349	239.411
350	251.509
351	263.531
352	275.472
353	287.329
354	299.099
355	310.778
356	322.362
357	333.848
358	345.232
359	356.511
360	367.682
Line Voltage vab
