Induced Coil Voltages at Rated Speed
Air-Gap Position (elec. degrees)
Voltage (V)
0	-0.000000
1	-0.129384
2	-0.259251
3	-0.389359
4	-0.518310
5	-0.643614
6	-0.762246
7	-0.871433
8	-0.969294
9	-1.055098
10	-1.129138
11	-1.192394
12	-1.246183
13	-1.291888
14	-1.330801
15	-1.364050
16	-1.392582
17	-1.417178
18	-1.438473
19	-1.456987
20	-1.473143
21	-1.487288
22	-1.499708
23	-1.510644
24	-1.520294
25	-1.528827
26	-1.536388
27	-1.543097
28	-1.549059
29	-1.554365
30	-1.559092
31	-1.563308
32	-1.567073
33	-1.570436
34	-1.573444
35	-1.576136
36	-1.578547
37	-1.580707
38	-1.582643
39	-1.584380
40	-1.585938
41	-1.587337
42	-1.588593
43	-1.589721
44	-1.590735
45	-1.591646
46	-1.592465
47	-1.593201
48	-1.593864
49	-1.594459
50	-1.594995
51	-1.595477
52	-1.595911
53	-1.596301
54	-1.596652
55	-1.596968
56	-1.597253
57	-1.597509
58	-1.597740
59	-1.597947
60	-1.598134
61	-1.598303
62	-1.598454
63	-1.598591
64	-1.598714
65	-1.598824
66	-1.598924
67	-1.599014
68	-1.599095
69	-1.599167
70	-1.599233
71	-1.599292
72	-1.599345
73	-1.599393
74	-1.599436
75	-1.599475
76	-1.599510
77	-1.599542
78	-1.599570
79	-1.599596
80	-1.599619
81	-1.599640
82	-1.599658
83	-1.599675
84	-1.599690
85	-1.599704
86	-1.599716
87	-1.599727
88	-1.599737
89	-1.599746
90	-1.599755
91	-1.599746
92	-1.599737
93	-1.599727
94	-1.599716
95	-1.599704
96	-1.599690
97	-1.599675
98	-1.599658
99	-1.599640
100	-1.599619
101	-1.599596
102	-1.599570
103	-1.599542
104	-1.599510
105	-1.599475
106	-1.599436
107	-1.599393
108	-1.599345
109	-1.599292
110	-1.599233
111	-1.599167
112	-1.599095
113	-1.599014
114	-1.598924
115	-1.598824
116	-1.598714
117	-1.598591
118	-1.598454
119	-1.598303
120	-1.598134
121	-1.597947
122	-1.597740
123	-1.597509
124	-1.597253
125	-1.596968
126	-1.596652
127	-1.596301
128	-1.595911
129	-1.595477
130	-1.594995
131	-1.594459
132	-1.593864
133	-1.593201
134	-1.592465
135	-1.591646
136	-1.590735
137	-1.589721
138	-1.588593
139	-1.587337
140	-1.585938
141	-1.584380
142	-1.582643
143	-1.580707
144	-1.578547
145	-1.576136
146	-1.573444
147	-1.570436
148	-1.567073
149	-1.563308
150	-1.559092
151	-1.554365
152	-1.549059
153	-1.543097
154	-1.536388
155	-1.528827
156	-1.520294
157	-1.510644
158	-1.499708
159	-1.487288
160	-1.473143
161	-1.456987
162	-1.438473
163	-1.417178
164	-1.392582
165	-1.364050
166	-1.330801
167	-1.291888
168	-1.246183
169	-1.192394
170	-1.129138
171	-1.055098
172	-0.969294
173	-0.871433
174	-0.762246
175	-0.643614
176	-0.518310
177	-0.389359
178	-0.259251
179	-0.129384
180	-0.000000
181	0.129384
182	0.259251
183	0.389359
184	0.518310
185	0.643614
186	0.762246
187	0.871433
188	0.969294
189	1.055098
190	1.129138
191	1.192394
192	1.246183
193	1.291888
194	1.330801
195	1.364050
196	1.392582
197	1.417178
198	1.438473
199	1.456987
200	1.473143
201	1.487288
202	1.499708
203	1.510644
204	1.520294
205	1.528827
206	1.536388
207	1.543097
208	1.549059
209	1.554365
210	1.559092
211	1.563308
212	1.567073
213	1.570436
214	1.573444
215	1.576136
216	1.578547
217	1.580707
218	1.582643
219	1.584380
220	1.585938
221	1.587337
222	1.588593
223	1.589721
224	1.590735
225	1.591646
226	1.592465
227	1.593201
228	1.593864
229	1.594459
230	1.594995
231	1.595477
232	1.595911
233	1.596301
234	1.596652
235	1.596968
236	1.597253
237	1.597509
238	1.597740
239	1.597947
240	1.598134
241	1.598303
242	1.598454
243	1.598591
244	1.598714
245	1.598824
246	1.598924
247	1.599014
248	1.599095
249	1.599167
250	1.599233
251	1.599292
252	1.599345
253	1.599393
254	1.599436
255	1.599475
256	1.599510
257	1.599542
258	1.599570
259	1.599596
260	1.599619
261	1.599640
262	1.599658
263	1.599675
264	1.599690
265	1.599704
266	1.599716
267	1.599727
268	1.599737
269	1.599746
270	1.599755
271	1.599746
272	1.599737
273	1.599727
274	1.599716
275	1.599704
276	1.599690
277	1.599675
278	1.599658
279	1.599640
280	1.599619
281	1.599596
282	1.599570
283	1.599542
284	1.599510
285	1.599475
286	1.599436
287	1.599393
288	1.599345
289	1.599292
290	1.599233
291	1.599167
292	1.599095
293	1.599014
294	1.598924
295	1.598824
296	1.598714
297	1.598591
298	1.598454
299	1.598303
300	1.598134
301	1.597947
302	1.597740
303	1.597509
304	1.597253
305	1.596968
306	1.596652
307	1.596301
308	1.595911
309	1.595477
310	1.594995
311	1.594459
312	1.593864
313	1.593201
314	1.592465
315	1.591646
316	1.590735
317	1.589721
318	1.588593
319	1.587337
320	1.585938
321	1.584380
322	1.582643
323	1.580707
324	1.578547
325	1.576136
326	1.573444
327	1.570436
328	1.567073
329	1.563308
330	1.559092
331	1.554365
332	1.549059
333	1.543097
334	1.536388
335	1.528827
336	1.520294
337	1.510644
338	1.499708
339	1.487288
340	1.473143
341	1.456987
342	1.438473
343	1.417178
344	1.392582
345	1.364050
346	1.330801
347	1.291888
348	1.246183
349	1.192394
350	1.129138
351	1.055098
352	0.969294
353	0.871433
354	0.762246
355	0.643614
356	0.518310
357	0.389359
358	0.259251
359	0.129384
360	0.000000
One-Conductor Voltage
0	1.559092
1	1.424981
2	1.289808
3	1.153737
4	1.018078
5	0.885213
6	0.758047
7	0.639211
8	0.530414
9	0.432189
10	0.344005
11	0.264594
12	0.192291
13	0.125290
14	0.061781
15	0.000000
16	-0.061781
17	-0.125290
18	-0.192291
19	-0.264594
20	-0.344005
21	-0.432189
22	-0.530414
23	-0.639211
24	-0.758047
25	-0.885213
26	-1.018078
27	-1.153737
28	-1.289808
29	-1.424981
30	-1.559092
31	-1.692692
32	-1.826324
33	-1.959796
34	-2.091754
35	-2.219750
36	-2.340793
37	-2.452140
38	-2.551937
39	-2.639478
40	-2.715076
41	-2.779731
42	-2.834776
43	-2.881609
44	-2.921536
45	-2.955696
46	-2.985047
47	-3.010379
48	-3.032337
49	-3.051447
50	-3.068138
51	-3.082765
52	-3.095619
53	-3.106945
54	-3.116946
55	-3.125796
56	-3.133640
57	-3.140606
58	-3.146799
59	-3.152312
60	-3.157226
61	-3.161611
62	-3.165527
63	-3.169027
64	-3.172158
65	-3.174961
66	-3.177471
67	-3.179721
68	-3.181738
69	-3.183547
70	-3.185171
71	-3.186629
72	-3.187939
73	-3.189115
74	-3.190172
75	-3.191121
76	-3.191975
77	-3.192743
78	-3.193434
79	-3.194055
80	-3.194614
81	-3.195116
82	-3.195569
83	-3.195976
84	-3.196342
85	-3.196672
86	-3.196969
87	-3.197236
88	-3.197477
89	-3.197694
90	-3.197889
91	-3.198049
92	-3.198192
93	-3.198318
94	-3.198430
95	-3.198528
96	-3.198614
97	-3.198689
98	-3.198753
99	-3.198807
100	-3.198852
101	-3.198888
102	-3.198915
103	-3.198935
104	-3.198947
105	-3.198950
106	-3.198947
107	-3.198935
108	-3.198915
109	-3.198888
110	-3.198852
111	-3.198807
112	-3.198753
113	-3.198689
114	-3.198614
115	-3.198528
116	-3.198430
117	-3.198318
118	-3.198192
119	-3.198049
120	-3.197889
121	-3.197694
122	-3.197477
123	-3.197236
124	-3.196969
125	-3.196672
126	-3.196342
127	-3.195976
128	-3.195569
129	-3.195116
130	-3.194614
131	-3.194055
132	-3.193434
133	-3.192743
134	-3.191975
135	-3.191121
136	-3.190172
137	-3.189115
138	-3.187939
139	-3.186629
140	-3.185171
141	-3.183547
142	-3.181738
143	-3.179721
144	-3.177471
145	-3.174961
146	-3.172158
147	-3.169027
148	-3.165527
149	-3.161611
150	-3.157226
151	-3.152312
152	-3.146799
153	-3.140606
154	-3.133640
155	-3.125796
156	-3.116946
157	-3.106945
158	-3.095619
159	-3.082765
160	-3.068138
161	-3.051447
162	-3.032337
163	-3.010379
164	-2.985047
165	-2.955696
166	-2.921536
167	-2.881609
168	-2.834776
169	-2.779731
170	-2.715076
171	-2.639478
172	-2.551937
173	-2.452140
174	-2.340793
175	-2.219750
176	-2.091754
177	-1.959796
178	-1.826324
179	-1.692692
180	-1.559092
181	-1.424981
182	-1.289808
183	-1.153737
184	-1.018078
185	-0.885213
186	-0.758047
187	-0.639211
188	-0.530414
189	-0.432189
190	-0.344005
191	-0.264594
192	-0.192291
193	-0.125290
194	-0.061781
195	0.000000
196	0.061781
197	0.125290
198	0.192291
199	0.264594
200	0.344005
201	0.432189
202	0.530414
203	0.639211
204	0.758047
205	0.885213
206	1.018078
207	1.153737
208	1.289808
209	1.424981
210	1.559092
211	1.692692
212	1.826324
213	1.959796
214	2.091754
215	2.219750
216	2.340793
217	2.452140
218	2.551937
219	2.639478
220	2.715076
221	2.779731
222	2.834776
223	2.881609
224	2.921536
225	2.955696
226	2.985047
227	3.010379
228	3.032337
229	3.051447
230	3.068138
231	3.082765
232	3.095619
233	3.106945
234	3.116946
235	3.125796
236	3.133640
237	3.140606
238	3.146799
239	3.152312
240	3.157226
241	3.161611
242	3.165527
243	3.169027
244	3.172158
245	3.174961
246	3.177471
247	3.179721
248	3.181738
249	3.183547
250	3.185171
251	3.186629
252	3.187939
253	3.189115
254	3.190172
255	3.191121
256	3.191975
257	3.192743
258	3.193434
259	3.194055
260	3.194614
261	3.195116
262	3.195569
263	3.195976
264	3.196342
265	3.196672
266	3.196969
267	3.197236
268	3.197477
269	3.197694
270	3.197889
271	3.198049
272	3.198192
273	3.198318
274	3.198430
275	3.198528
276	3.198614
277	3.198689
278	3.198753
279	3.198807
280	3.198852
281	3.198888
282	3.198915
283	3.198935
284	3.198947
285	3.198950
286	3.198947
287	3.198935
288	3.198915
289	3.198888
290	3.198852
291	3.198807
292	3.198753
293	3.198689
294	3.198614
295	3.198528
296	3.198430
297	3.198318
298	3.198192
299	3.198049
300	3.197889
301	3.197694
302	3.197477
303	3.197236
304	3.196969
305	3.196672
306	3.196342
307	3.195976
308	3.195569
309	3.195116
310	3.194614
311	3.194055
312	3.193434
313	3.192743
314	3.191975
315	3.191121
316	3.190172
317	3.189115
318	3.187939
319	3.186629
320	3.185171
321	3.183547
322	3.181738
323	3.179721
324	3.177471
325	3.174961
326	3.172158
327	3.169027
328	3.165527
329	3.161611
330	3.157226
331	3.152312
332	3.146799
333	3.140606
334	3.133640
335	3.125796
336	3.116946
337	3.106945
338	3.095619
339	3.082765
340	3.068138
341	3.051447
342	3.032337
343	3.010379
344	2.985047
345	2.955696
346	2.921536
347	2.881609
348	2.834776
349	2.779731
350	2.715076
351	2.639478
352	2.551937
353	2.452140
354	2.340793
355	2.219750
356	2.091754
357	1.959796
358	1.826324
359	1.692692
360	1.559092
One-Turn Voltage
