Winding Voltages under Load 
Air-Gap Position (elec. degrees)
Voltage (V)
0	-147.225
1	-139.029
2	-130.668
3	-122.148
4	-113.435
5	-104.502
6	-95.3132
7	-85.8279
8	-75.9929
9	-65.7431
10	-54.9863
11	-43.646
12	-31.6
13	-18.7215
14	-4.88153
15	10.0313
16	26.0805
17	43.2484
18	61.4117
19	80.3458
20	99.7651
21	119.391
22	139.028
23	158.581
24	178.056
25	197.498
26	216.924
27	236.263
28	255.327
29	273.849
30	291.539
31	308.159
32	323.568
33	337.735
34	350.711
35	362.604
36	373.543
37	383.655
38	393.049
39	401.845
40	410.117
41	417.93
42	425.34
43	432.391
44	439.118
45	445.551
46	451.7
47	457.609
48	463.293
49	468.741
50	473.972
51	478.995
52	483.812
53	488.427
54	492.841
55	497.053
56	501.058
57	504.852
58	508.43
59	511.781
60	514.907
61	517.77
62	520.352
63	522.657
64	524.646
65	526.289
66	527.549
67	528.381
68	528.728
69	528.523
70	527.669
71	526.088
72	523.654
73	520.238
74	515.708
75	509.949
76	502.896
77	494.562
78	485.07
79	474.64
80	463.556
81	452.094
82	440.446
83	428.706
84	416.865
85	404.876
86	392.72
87	380.464
88	368.296
89	356.481
90	345.304
91	335.004
92	325.719
93	317.478
94	310.229
95	303.861
96	298.245
97	293.25
98	288.768
99	284.675
100	280.899
101	277.37
102	274.032
103	270.841
104	267.758
105	264.755
106	261.82
107	258.907
108	256
109	253.112
110	250.219
111	247.315
112	244.395
113	241.455
114	238.494
115	235.513
116	232.514
117	229.503
118	226.486
119	223.471
120	220.457
121	217.481
122	214.563
123	211.699
124	208.926
125	206.276
126	203.786
127	201.501
128	199.479
129	197.787
130	196.523
131	195.765
132	195.64
133	196.278
134	197.812
135	200.357
136	203.981
137	208.669
138	214.302
139	220.66
140	227.46
141	234.427
142	241.371
143	248.199
144	254.922
145	261.589
146	268.22
147	274.749
148	280.991
149	286.682
150	291.538
151	295.324
152	297.904
153	299.248
154	299.414
155	298.513
156	296.676
157	294.036
158	290.705
159	286.809
160	282.421
161	277.615
162	272.448
163	266.969
164	261.217
165	255.224
166	249.006
167	242.609
168	236.053
169	229.329
170	222.462
171	215.463
172	208.339
173	201.097
174	193.741
175	186.274
176	178.695
177	171.003
178	163.196
179	155.268
180	147.224
181	139.029
182	130.668
183	122.148
184	113.435
185	104.501
186	95.3127
187	85.8273
188	75.9923
189	65.7425
190	54.9857
191	43.6453
192	31.5993
193	18.7209
194	4.88091
195	-10.0319
196	-26.081
197	-43.2489
198	-61.4122
199	-80.3462
200	-99.7655
201	-119.391
202	-139.028
203	-158.581
204	-178.056
205	-197.498
206	-216.923
207	-236.263
208	-255.327
209	-273.848
210	-291.538
211	-308.158
212	-323.567
213	-337.734
214	-350.71
215	-362.603
216	-373.542
217	-383.654
218	-393.047
219	-401.844
220	-410.115
221	-417.928
222	-425.338
223	-432.389
224	-439.117
225	-445.55
226	-451.699
227	-457.608
228	-463.292
229	-468.739
230	-473.971
231	-478.993
232	-483.811
233	-488.426
234	-492.84
235	-497.051
236	-501.056
237	-504.851
238	-508.428
239	-511.779
240	-514.905
241	-517.769
242	-520.351
243	-522.655
244	-524.644
245	-526.288
246	-527.548
247	-528.38
248	-528.727
249	-528.521
250	-527.668
251	-526.087
252	-523.653
253	-520.237
254	-515.707
255	-509.948
256	-502.895
257	-494.562
258	-485.069
259	-474.639
260	-463.555
261	-452.093
262	-440.446
263	-428.706
264	-416.865
265	-404.876
266	-392.72
267	-380.465
268	-368.297
269	-356.481
270	-345.305
271	-335.005
272	-325.72
273	-317.48
274	-310.23
275	-303.862
276	-298.246
277	-293.251
278	-288.769
279	-284.676
280	-280.9
281	-277.371
282	-274.033
283	-270.842
284	-267.76
285	-264.756
286	-261.821
287	-258.908
288	-256.002
289	-253.113
290	-250.22
291	-247.316
292	-244.396
293	-241.456
294	-238.495
295	-235.514
296	-232.515
297	-229.504
298	-226.487
299	-223.472
300	-220.457
301	-217.482
302	-214.564
303	-211.7
304	-208.927
305	-206.277
306	-203.786
307	-201.502
308	-199.479
309	-197.788
310	-196.523
311	-195.765
312	-195.64
313	-196.278
314	-197.812
315	-200.358
316	-203.981
317	-208.669
318	-214.303
319	-220.66
320	-227.46
321	-234.427
322	-241.371
323	-248.199
324	-254.922
325	-261.589
326	-268.22
327	-274.749
328	-280.991
329	-286.682
330	-291.538
331	-295.324
332	-297.904
333	-299.248
334	-299.414
335	-298.513
336	-296.676
337	-294.036
338	-290.705
339	-286.809
340	-282.422
341	-277.615
342	-272.449
343	-266.969
344	-261.217
345	-255.224
346	-249.006
347	-242.609
348	-236.053
349	-229.329
350	-222.463
351	-215.463
352	-208.34
353	-201.098
354	-193.741
355	-186.274
356	-178.695
357	-171.004
358	-163.197
359	-155.269
360	-147.225
Phase Voltage va
0	367.682
1	378.74
2	389.683
3	400.507
4	411.21
5	421.787
6	432.236
7	442.553
8	452.735
9	462.779
10	472.682
11	482.442
12	492.054
13	501.516
14	510.826
15	519.98
16	528.976
17	537.811
18	546.481
19	554.986
20	563.321
21	571.484
22	579.474
23	587.287
24	594.921
25	602.374
26	609.644
27	616.727
28	623.623
29	630.329
30	636.843
31	643.163
32	649.287
33	655.213
34	660.94
35	666.465
36	671.788
37	676.905
38	681.817
39	686.521
40	691.015
41	695.299
42	699.372
43	703.231
44	706.876
45	710.306
46	713.52
47	716.516
48	719.294
49	721.852
50	724.191
51	726.31
52	728.207
53	729.882
54	731.335
55	732.565
56	733.572
57	734.355
58	734.915
59	735.251
60	735.363
61	735.251
62	734.915
63	734.355
64	733.572
65	732.565
66	731.335
67	729.882
68	728.207
69	726.31
70	724.191
71	721.852
72	719.294
73	716.516
74	713.52
75	710.306
76	706.876
77	703.231
78	699.372
79	695.299
80	691.015
81	686.521
82	681.817
83	676.905
84	671.788
85	666.465
86	660.94
87	655.213
88	649.287
89	643.163
90	636.843
91	630.329
92	623.623
93	616.727
94	609.644
95	602.374
96	594.921
97	587.287
98	579.474
99	571.484
100	563.321
101	554.986
102	546.481
103	537.811
104	528.976
105	519.98
106	510.826
107	501.516
108	492.054
109	482.442
110	472.682
111	462.779
112	452.735
113	442.553
114	432.236
115	421.787
116	411.21
117	400.507
118	389.683
119	378.74
120	367.682
121	356.511
122	345.232
123	333.848
124	322.362
125	310.778
126	299.099
127	287.329
128	275.472
129	263.531
130	251.509
131	239.411
132	227.24
133	214.999
134	202.694
135	190.326
136	177.9
137	165.421
138	152.891
139	140.314
140	127.694
141	115.036
142	102.343
143	89.6182
144	76.8664
145	64.0911
146	51.2963
147	38.4859
148	25.6638
149	12.8339
150	-8.29914e-012
151	-12.8339
152	-25.6638
153	-38.4859
154	-51.2963
155	-64.0911
156	-76.8664
157	-89.6182
158	-102.343
159	-115.036
160	-127.694
161	-140.314
162	-152.891
163	-165.421
164	-177.9
165	-190.326
166	-202.694
167	-214.999
168	-227.24
169	-239.411
170	-251.509
171	-263.531
172	-275.472
173	-287.329
174	-299.099
175	-310.778
176	-322.362
177	-333.848
178	-345.232
179	-356.511
180	-367.682
181	-378.74
182	-389.683
183	-400.507
184	-411.21
185	-421.787
186	-432.236
187	-442.553
188	-452.735
189	-462.779
190	-472.682
191	-482.442
192	-492.054
193	-501.516
194	-510.826
195	-519.98
196	-528.976
197	-537.811
198	-546.481
199	-554.986
200	-563.321
201	-571.484
202	-579.474
203	-587.287
204	-594.921
205	-602.374
206	-609.644
207	-616.727
208	-623.623
209	-630.329
210	-636.843
211	-643.163
212	-649.287
213	-655.213
214	-660.94
215	-666.465
216	-671.788
217	-676.905
218	-681.817
219	-686.521
220	-691.015
221	-695.299
222	-699.372
223	-703.231
224	-706.876
225	-710.306
226	-713.52
227	-716.516
228	-719.294
229	-721.852
230	-724.191
231	-726.31
232	-728.207
233	-729.882
234	-731.335
235	-732.565
236	-733.572
237	-734.355
238	-734.915
239	-735.251
240	-735.363
241	-735.251
242	-734.915
243	-734.355
244	-733.572
245	-732.565
246	-731.335
247	-729.882
248	-728.207
249	-726.31
250	-724.191
251	-721.852
252	-719.294
253	-716.516
254	-713.52
255	-710.306
256	-706.876
257	-703.231
258	-699.372
259	-695.299
260	-691.015
261	-686.521
262	-681.817
263	-676.905
264	-671.788
265	-666.465
266	-660.94
267	-655.213
268	-649.287
269	-643.163
270	-636.843
271	-630.329
272	-623.623
273	-616.727
274	-609.644
275	-602.374
276	-594.921
277	-587.287
278	-579.474
279	-571.484
280	-563.321
281	-554.986
282	-546.481
283	-537.811
284	-528.976
285	-519.98
286	-510.826
287	-501.516
288	-492.054
289	-482.442
290	-472.682
291	-462.779
292	-452.735
293	-442.553
294	-432.236
295	-421.787
296	-411.21
297	-400.507
298	-389.683
299	-378.74
300	-367.682
301	-356.511
302	-345.232
303	-333.848
304	-322.362
305	-310.778
306	-299.099
307	-287.329
308	-275.472
309	-263.531
310	-251.509
311	-239.411
312	-227.24
313	-214.999
314	-202.694
315	-190.326
316	-177.9
317	-165.421
318	-152.891
319	-140.314
320	-127.694
321	-115.036
322	-102.343
323	-89.6182
324	-76.8664
325	-64.0911
326	-51.2963
327	-38.4859
328	-25.6638
329	-12.8339
330	4.20641e-012
331	12.8339
332	25.6638
333	38.4859
334	51.2963
335	64.0911
336	76.8664
337	89.6182
338	102.343
339	115.036
340	127.694
341	140.314
342	152.891
343	165.421
344	177.9
345	190.326
346	202.694
347	214.999
348	227.24
349	239.411
350	251.509
351	263.531
352	275.472
353	287.329
354	299.099
355	310.778
356	322.362
357	333.848
358	345.232
359	356.511
360	367.682
Line Voltage vab
