Induced Coil Voltages at Rated Speed
Air-Gap Position (elec. degrees)
Voltage (V)
0	-0.000000
1	-0.046209
2	-0.092590
3	-0.139057
4	-0.185111
5	-0.229862
6	-0.272231
7	-0.311226
8	-0.346176
9	-0.376821
10	-0.403264
11	-0.425855
12	-0.445065
13	-0.461389
14	-0.475286
15	-0.487161
16	-0.497351
17	-0.506135
18	-0.513740
19	-0.520353
20	-0.526123
21	-0.531174
22	-0.535610
23	-0.539516
24	-0.542962
25	-0.546010
26	-0.548710
27	-0.551106
28	-0.553235
29	-0.555130
30	-0.556819
31	-0.558324
32	-0.559669
33	-0.560870
34	-0.561944
35	-0.562906
36	-0.563767
37	-0.564538
38	-0.565230
39	-0.565850
40	-0.566407
41	-0.566906
42	-0.567355
43	-0.567758
44	-0.568120
45	-0.568445
46	-0.568738
47	-0.569001
48	-0.569237
49	-0.569450
50	-0.569641
51	-0.569813
52	-0.569968
53	-0.570107
54	-0.570233
55	-0.570346
56	-0.570447
57	-0.570539
58	-0.570621
59	-0.570695
60	-0.570762
61	-0.570822
62	-0.570876
63	-0.570925
64	-0.570969
65	-0.571009
66	-0.571044
67	-0.571076
68	-0.571105
69	-0.571131
70	-0.571155
71	-0.571176
72	-0.571195
73	-0.571212
74	-0.571227
75	-0.571241
76	-0.571254
77	-0.571265
78	-0.571275
79	-0.571284
80	-0.571292
81	-0.571300
82	-0.571307
83	-0.571313
84	-0.571318
85	-0.571323
86	-0.571327
87	-0.571331
88	-0.571335
89	-0.571338
90	-0.571341
91	-0.571338
92	-0.571335
93	-0.571331
94	-0.571327
95	-0.571323
96	-0.571318
97	-0.571313
98	-0.571307
99	-0.571300
100	-0.571292
101	-0.571284
102	-0.571275
103	-0.571265
104	-0.571254
105	-0.571241
106	-0.571227
107	-0.571212
108	-0.571195
109	-0.571176
110	-0.571155
111	-0.571131
112	-0.571105
113	-0.571076
114	-0.571044
115	-0.571009
116	-0.570969
117	-0.570925
118	-0.570876
119	-0.570822
120	-0.570762
121	-0.570695
122	-0.570621
123	-0.570539
124	-0.570447
125	-0.570346
126	-0.570233
127	-0.570107
128	-0.569968
129	-0.569813
130	-0.569641
131	-0.569450
132	-0.569237
133	-0.569001
134	-0.568738
135	-0.568445
136	-0.568120
137	-0.567758
138	-0.567355
139	-0.566906
140	-0.566407
141	-0.565850
142	-0.565230
143	-0.564538
144	-0.563767
145	-0.562906
146	-0.561944
147	-0.560870
148	-0.559669
149	-0.558324
150	-0.556819
151	-0.555130
152	-0.553235
153	-0.551106
154	-0.548710
155	-0.546010
156	-0.542962
157	-0.539516
158	-0.535610
159	-0.531174
160	-0.526123
161	-0.520353
162	-0.513740
163	-0.506135
164	-0.497351
165	-0.487161
166	-0.475286
167	-0.461389
168	-0.445065
169	-0.425855
170	-0.403264
171	-0.376821
172	-0.346176
173	-0.311226
174	-0.272231
175	-0.229862
176	-0.185111
177	-0.139057
178	-0.092590
179	-0.046209
180	-0.000000
181	0.046209
182	0.092590
183	0.139057
184	0.185111
185	0.229862
186	0.272231
187	0.311226
188	0.346176
189	0.376821
190	0.403264
191	0.425855
192	0.445065
193	0.461389
194	0.475286
195	0.487161
196	0.497351
197	0.506135
198	0.513740
199	0.520353
200	0.526123
201	0.531174
202	0.535610
203	0.539516
204	0.542962
205	0.546010
206	0.548710
207	0.551106
208	0.553235
209	0.555130
210	0.556819
211	0.558324
212	0.559669
213	0.560870
214	0.561944
215	0.562906
216	0.563767
217	0.564538
218	0.565230
219	0.565850
220	0.566407
221	0.566906
222	0.567355
223	0.567758
224	0.568120
225	0.568445
226	0.568738
227	0.569001
228	0.569237
229	0.569450
230	0.569641
231	0.569813
232	0.569968
233	0.570107
234	0.570233
235	0.570346
236	0.570447
237	0.570539
238	0.570621
239	0.570695
240	0.570762
241	0.570822
242	0.570876
243	0.570925
244	0.570969
245	0.571009
246	0.571044
247	0.571076
248	0.571105
249	0.571131
250	0.571155
251	0.571176
252	0.571195
253	0.571212
254	0.571227
255	0.571241
256	0.571254
257	0.571265
258	0.571275
259	0.571284
260	0.571292
261	0.571300
262	0.571307
263	0.571313
264	0.571318
265	0.571323
266	0.571327
267	0.571331
268	0.571335
269	0.571338
270	0.571341
271	0.571338
272	0.571335
273	0.571331
274	0.571327
275	0.571323
276	0.571318
277	0.571313
278	0.571307
279	0.571300
280	0.571292
281	0.571284
282	0.571275
283	0.571265
284	0.571254
285	0.571241
286	0.571227
287	0.571212
288	0.571195
289	0.571176
290	0.571155
291	0.571131
292	0.571105
293	0.571076
294	0.571044
295	0.571009
296	0.570969
297	0.570925
298	0.570876
299	0.570822
300	0.570762
301	0.570695
302	0.570621
303	0.570539
304	0.570447
305	0.570346
306	0.570233
307	0.570107
308	0.569968
309	0.569813
310	0.569641
311	0.569450
312	0.569237
313	0.569001
314	0.568738
315	0.568445
316	0.568120
317	0.567758
318	0.567355
319	0.566906
320	0.566407
321	0.565850
322	0.565230
323	0.564538
324	0.563767
325	0.562906
326	0.561944
327	0.560870
328	0.559669
329	0.558324
330	0.556819
331	0.555130
332	0.553235
333	0.551106
334	0.548710
335	0.546010
336	0.542962
337	0.539516
338	0.535610
339	0.531174
340	0.526123
341	0.520353
342	0.513740
343	0.506135
344	0.497351
345	0.487161
346	0.475286
347	0.461389
348	0.445065
349	0.425855
350	0.403264
351	0.376821
352	0.346176
353	0.311226
354	0.272231
355	0.229862
356	0.185111
357	0.139057
358	0.092590
359	0.046209
360	0.000000
One-Conductor Voltage
0	0.556819
1	0.508922
2	0.460646
3	0.412049
4	0.363599
5	0.316148
6	0.270731
7	0.228290
8	0.189434
9	0.154353
10	0.122859
11	0.094498
12	0.068675
13	0.044746
14	0.022065
15	0.000000
16	-0.022065
17	-0.044746
18	-0.068675
19	-0.094498
20	-0.122859
21	-0.154353
22	-0.189434
23	-0.228290
24	-0.270731
25	-0.316148
26	-0.363599
27	-0.412049
28	-0.460646
29	-0.508922
30	-0.556819
31	-0.604533
32	-0.652258
33	-0.699927
34	-0.747055
35	-0.792768
36	-0.835998
37	-0.875764
38	-0.911406
39	-0.942671
40	-0.969670
41	-0.992761
42	-1.012420
43	-1.029146
44	-1.043406
45	-1.055606
46	-1.066088
47	-1.075135
48	-1.082977
49	-1.089802
50	-1.095764
51	-1.100987
52	-1.105578
53	-1.109623
54	-1.113195
55	-1.116356
56	-1.119157
57	-1.121645
58	-1.123857
59	-1.125826
60	-1.127581
61	-1.129147
62	-1.130545
63	-1.131795
64	-1.132914
65	-1.133915
66	-1.134811
67	-1.135615
68	-1.136335
69	-1.136981
70	-1.137561
71	-1.138082
72	-1.138549
73	-1.138970
74	-1.139347
75	-1.139686
76	-1.139991
77	-1.140265
78	-1.140512
79	-1.140734
80	-1.140933
81	-1.141113
82	-1.141275
83	-1.141420
84	-1.141551
85	-1.141669
86	-1.141775
87	-1.141870
88	-1.141956
89	-1.142033
90	-1.142103
91	-1.142160
92	-1.142211
93	-1.142256
94	-1.142296
95	-1.142332
96	-1.142362
97	-1.142389
98	-1.142412
99	-1.142431
100	-1.142447
101	-1.142460
102	-1.142470
103	-1.142477
104	-1.142481
105	-1.142482
106	-1.142481
107	-1.142477
108	-1.142470
109	-1.142460
110	-1.142447
111	-1.142431
112	-1.142412
113	-1.142389
114	-1.142362
115	-1.142332
116	-1.142296
117	-1.142256
118	-1.142211
119	-1.142160
120	-1.142103
121	-1.142033
122	-1.141956
123	-1.141870
124	-1.141775
125	-1.141669
126	-1.141551
127	-1.141420
128	-1.141275
129	-1.141113
130	-1.140933
131	-1.140734
132	-1.140512
133	-1.140265
134	-1.139991
135	-1.139686
136	-1.139347
137	-1.138970
138	-1.138549
139	-1.138082
140	-1.137561
141	-1.136981
142	-1.136335
143	-1.135615
144	-1.134811
145	-1.133915
146	-1.132914
147	-1.131795
148	-1.130545
149	-1.129147
150	-1.127581
151	-1.125826
152	-1.123857
153	-1.121645
154	-1.119157
155	-1.116356
156	-1.113195
157	-1.109623
158	-1.105578
159	-1.100987
160	-1.095764
161	-1.089802
162	-1.082977
163	-1.075135
164	-1.066088
165	-1.055606
166	-1.043406
167	-1.029146
168	-1.012420
169	-0.992761
170	-0.969670
171	-0.942671
172	-0.911406
173	-0.875764
174	-0.835998
175	-0.792768
176	-0.747055
177	-0.699927
178	-0.652258
179	-0.604533
180	-0.556819
181	-0.508922
182	-0.460646
183	-0.412049
184	-0.363599
185	-0.316148
186	-0.270731
187	-0.228290
188	-0.189434
189	-0.154353
190	-0.122859
191	-0.094498
192	-0.068675
193	-0.044746
194	-0.022065
195	0.000000
196	0.022065
197	0.044746
198	0.068675
199	0.094498
200	0.122859
201	0.154353
202	0.189434
203	0.228290
204	0.270731
205	0.316148
206	0.363599
207	0.412049
208	0.460646
209	0.508922
210	0.556819
211	0.604533
212	0.652258
213	0.699927
214	0.747055
215	0.792768
216	0.835998
217	0.875764
218	0.911406
219	0.942671
220	0.969670
221	0.992761
222	1.012420
223	1.029146
224	1.043406
225	1.055606
226	1.066088
227	1.075135
228	1.082977
229	1.089802
230	1.095764
231	1.100987
232	1.105578
233	1.109623
234	1.113195
235	1.116356
236	1.119157
237	1.121645
238	1.123857
239	1.125826
240	1.127581
241	1.129147
242	1.130545
243	1.131795
244	1.132914
245	1.133915
246	1.134811
247	1.135615
248	1.136335
249	1.136981
250	1.137561
251	1.138082
252	1.138549
253	1.138970
254	1.139347
255	1.139686
256	1.139991
257	1.140265
258	1.140512
259	1.140734
260	1.140933
261	1.141113
262	1.141275
263	1.141420
264	1.141551
265	1.141669
266	1.141775
267	1.141870
268	1.141956
269	1.142033
270	1.142103
271	1.142160
272	1.142211
273	1.142256
274	1.142296
275	1.142332
276	1.142362
277	1.142389
278	1.142412
279	1.142431
280	1.142447
281	1.142460
282	1.142470
283	1.142477
284	1.142481
285	1.142482
286	1.142481
287	1.142477
288	1.142470
289	1.142460
290	1.142447
291	1.142431
292	1.142412
293	1.142389
294	1.142362
295	1.142332
296	1.142296
297	1.142256
298	1.142211
299	1.142160
300	1.142103
301	1.142033
302	1.141956
303	1.141870
304	1.141775
305	1.141669
306	1.141551
307	1.141420
308	1.141275
309	1.141113
310	1.140933
311	1.140734
312	1.140512
313	1.140265
314	1.139991
315	1.139686
316	1.139347
317	1.138970
318	1.138549
319	1.138082
320	1.137561
321	1.136981
322	1.136335
323	1.135615
324	1.134811
325	1.133915
326	1.132914
327	1.131795
328	1.130545
329	1.129147
330	1.127581
331	1.125826
332	1.123857
333	1.121645
334	1.119157
335	1.116356
336	1.113195
337	1.109623
338	1.105578
339	1.100987
340	1.095764
341	1.089802
342	1.082977
343	1.075135
344	1.066088
345	1.055606
346	1.043406
347	1.029146
348	1.012420
349	0.992761
350	0.969670
351	0.942671
352	0.911406
353	0.875764
354	0.835998
355	0.792768
356	0.747055
357	0.699927
358	0.652258
359	0.604533
360	0.556819
One-Turn Voltage
