Induced Winding Voltages at Rated Speed
Air-Gap Position (elec. degrees)
Voltage (V)
0	-213.277955
1	-206.898727
2	-200.182882
3	-192.942377
4	-184.973960
5	-176.059620
6	-165.974977
7	-154.510226
8	-141.506605
9	-126.905057
10	-110.792217
11	-93.417590
12	-75.157372
13	-56.424063
14	-37.556101
15	-18.739804
16	0.000000
17	18.739804
18	37.556101
19	56.424063
20	75.157372
21	93.417590
22	110.792217
23	126.905057
24	141.506605
25	154.510226
26	165.974977
27	176.059620
28	184.973960
29	192.942377
30	200.182882
31	206.898727
32	213.277955
33	219.496808
34	225.723930
35	232.122812
36	238.850030
37	246.046796
38	253.822345
39	262.230876
40	271.249545
41	280.770643
42	290.620274
43	300.604014
44	310.562452
45	320.410497
46	330.142278
47	339.801227
48	349.429537
49	359.017579
50	368.473872
51	377.629778
52	386.278510
53	394.230255
54	401.357269
55	407.611811
56	413.017339
57	417.645220
58	421.590006
59	424.950683
60	427.819548
61	430.277227
62	432.391573
63	434.218558
64	435.803947
65	437.185106
66	438.392625
67	439.451686
68	440.383156
69	441.204447
70	441.930191
71	442.572759
72	443.142675
73	443.648941
74	444.099290
75	444.500398
76	444.858049
77	445.176195
78	445.460289
79	445.714157
80	445.941153
81	446.144225
82	446.325968
83	446.488671
84	446.634355
85	446.764811
86	446.881624
87	446.986197
88	447.079779
89	447.163476
90	447.238269
91	447.305033
92	447.364539
93	447.417475
94	447.464449
95	447.505995
96	447.542589
97	447.574644
98	447.602524
99	447.626543
100	447.646970
101	447.664036
102	447.677932
103	447.688814
104	447.696802
105	447.701986
106	447.704425
107	447.701986
108	447.696802
109	447.688814
110	447.677932
111	447.664036
112	447.646970
113	447.626543
114	447.602524
115	447.574644
116	447.542589
117	447.505995
118	447.464449
119	447.417475
120	447.364539
121	447.305033
122	447.238269
123	447.163476
124	447.079779
125	446.986197
126	446.881624
127	446.764811
128	446.634355
129	446.488671
130	446.325968
131	446.144225
132	445.941153
133	445.714157
134	445.460289
135	445.176195
136	444.858049
137	444.500398
138	444.099290
139	443.648941
140	443.142675
141	442.572759
142	441.930191
143	441.204447
144	440.383156
145	439.451686
146	438.392625
147	437.185106
148	435.803947
149	434.218558
150	432.391573
151	430.277227
152	427.819548
153	424.950683
154	421.590006
155	417.645220
156	413.017339
157	407.611811
158	401.357269
159	394.230255
160	386.278510
161	377.629778
162	368.473872
163	359.017579
164	349.429537
165	339.801227
166	330.142278
167	320.410497
168	310.562452
169	300.604014
170	290.620274
171	280.770643
172	271.249545
173	262.230876
174	253.822345
175	246.046796
176	238.850030
177	232.122812
178	225.723930
179	219.496808
180	213.277955
181	206.898727
182	200.182882
183	192.942377
184	184.973960
185	176.059620
186	165.974977
187	154.510226
188	141.506605
189	126.905057
190	110.792217
191	93.417590
192	75.157372
193	56.424063
194	37.556101
195	18.739804
196	0.000000
197	-18.739804
198	-37.556101
199	-56.424063
200	-75.157372
201	-93.417590
202	-110.792217
203	-126.905057
204	-141.506605
205	-154.510226
206	-165.974977
207	-176.059620
208	-184.973960
209	-192.942377
210	-200.182882
211	-206.898727
212	-213.277955
213	-219.496808
214	-225.723930
215	-232.122812
216	-238.850030
217	-246.046796
218	-253.822345
219	-262.230876
220	-271.249545
221	-280.770643
222	-290.620274
223	-300.604014
224	-310.562452
225	-320.410497
226	-330.142278
227	-339.801227
228	-349.429537
229	-359.017579
230	-368.473872
231	-377.629778
232	-386.278510
233	-394.230255
234	-401.357269
235	-407.611811
236	-413.017339
237	-417.645220
238	-421.590006
239	-424.950683
240	-427.819548
241	-430.277227
242	-432.391573
243	-434.218558
244	-435.803947
245	-437.185106
246	-438.392625
247	-439.451686
248	-440.383156
249	-441.204447
250	-441.930191
251	-442.572759
252	-443.142675
253	-443.648941
254	-444.099290
255	-444.500398
256	-444.858049
257	-445.176195
258	-445.460289
259	-445.714157
260	-445.941153
261	-446.144225
262	-446.325968
263	-446.488671
264	-446.634355
265	-446.764811
266	-446.881624
267	-446.986197
268	-447.079779
269	-447.163476
270	-447.238269
271	-447.305033
272	-447.364539
273	-447.417475
274	-447.464449
275	-447.505995
276	-447.542589
277	-447.574644
278	-447.602524
279	-447.626543
280	-447.646970
281	-447.664036
282	-447.677932
283	-447.688814
284	-447.696802
285	-447.701986
286	-447.704425
287	-447.701986
288	-447.696802
289	-447.688814
290	-447.677932
291	-447.664036
292	-447.646970
293	-447.626543
294	-447.602524
295	-447.574644
296	-447.542589
297	-447.505995
298	-447.464449
299	-447.417475
300	-447.364539
301	-447.305033
302	-447.238269
303	-447.163476
304	-447.079779
305	-446.986197
306	-446.881624
307	-446.764811
308	-446.634355
309	-446.488671
310	-446.325968
311	-446.144225
312	-445.941153
313	-445.714157
314	-445.460289
315	-445.176195
316	-444.858049
317	-444.500398
318	-444.099290
319	-443.648941
320	-443.142675
321	-442.572759
322	-441.930191
323	-441.204447
324	-440.383156
325	-439.451686
326	-438.392625
327	-437.185106
328	-435.803947
329	-434.218558
330	-432.391573
331	-430.277227
332	-427.819548
333	-424.950683
334	-421.590006
335	-417.645220
336	-413.017339
337	-407.611811
338	-401.357269
339	-394.230255
340	-386.278510
341	-377.629778
342	-368.473872
343	-359.017579
344	-349.429537
345	-339.801227
346	-330.142278
347	-320.410497
348	-310.562452
349	-300.604014
350	-290.620274
351	-280.770643
352	-271.249545
353	-262.230876
354	-253.822345
355	-246.046796
356	-238.850030
357	-232.122812
358	-225.723930
359	-219.496808
360	-213.277955
Phase Voltage ea
0	214.541593
1	223.378501
2	232.208692
3	241.276180
4	250.829987
5	261.125486
6	272.417648
7	284.941460
8	298.876551
9	314.299390
10	331.137974
11	349.155169
12	367.985303
13	387.224877
14	406.543188
15	425.760594
16	444.858049
17	463.915999
18	483.016390
19	502.138220
20	521.098525
21	539.561815
22	557.118185
23	573.393727
24	588.140960
25	601.275037
26	612.856601
27	623.045817
28	632.053739
29	640.105853
30	647.421151
31	654.203759
32	660.642494
33	666.914284
34	673.188379
35	679.628807
36	686.392619
37	693.621440
38	701.424869
39	709.857418
40	718.896515
41	728.434679
42	738.298206
43	748.292828
44	758.259254
45	768.112483
46	777.846703
47	787.503214
48	797.126338
49	806.706392
50	816.151804
51	825.293815
52	833.925481
53	841.856798
54	848.959793
55	855.186455
56	860.559928
57	865.151215
58	869.054454
59	872.368158
60	875.184087
61	877.582260
62	879.629843
63	881.382033
64	882.883726
65	884.171303
66	885.274249
67	886.216497
68	887.017511
69	887.693118
70	888.256159
71	888.716984
72	889.083829
73	889.363097
74	889.559578
75	889.676593
76	889.716099
77	889.676593
78	889.559578
79	889.363097
80	889.083829
81	888.716984
82	888.256159
83	887.693118
84	887.017511
85	886.216497
86	885.274249
87	884.171303
88	882.883726
89	881.382033
90	879.629843
91	877.582260
92	875.184087
93	872.368158
94	869.054454
95	865.151215
96	860.559928
97	855.186455
98	848.959793
99	841.856798
100	833.925481
101	825.293815
102	816.151804
103	806.706392
104	797.126338
105	787.503214
106	777.846703
107	768.112483
108	758.259254
109	748.292828
110	738.298206
111	728.434679
112	718.896515
113	709.857418
114	701.424869
115	693.621440
116	686.392619
117	679.628807
118	673.188379
119	666.914284
120	660.642494
121	654.203759
122	647.421151
123	640.105853
124	632.053739
125	623.045817
126	612.856601
127	601.275037
128	588.140960
129	573.393727
130	557.118185
131	539.561815
132	521.098525
133	502.138220
134	483.016390
135	463.915999
136	444.858049
137	425.760594
138	406.543188
139	387.224877
140	367.985303
141	349.155169
142	331.137974
143	314.299390
144	298.876551
145	284.941460
146	272.417648
147	261.125486
148	250.829987
149	241.276180
150	232.208692
151	223.378501
152	214.541593
153	205.453874
154	195.866076
155	185.522408
156	174.167309
157	161.565015
158	147.534924
159	131.999379
160	115.028965
161	96.859135
162	77.853598
163	58.413565
164	38.867085
165	19.390731
166	0.000000
167	-19.390731
168	-38.867085
169	-58.413565
170	-77.853598
171	-96.859135
172	-115.028965
173	-131.999379
174	-147.534924
175	-161.565015
176	-174.167309
177	-185.522408
178	-195.866076
179	-205.453874
180	-214.541593
181	-223.378501
182	-232.208692
183	-241.276180
184	-250.829987
185	-261.125486
186	-272.417648
187	-284.941460
188	-298.876551
189	-314.299390
190	-331.137974
191	-349.155169
192	-367.985303
193	-387.224877
194	-406.543188
195	-425.760594
196	-444.858049
197	-463.915999
198	-483.016390
199	-502.138220
200	-521.098525
201	-539.561815
202	-557.118185
203	-573.393727
204	-588.140960
205	-601.275037
206	-612.856601
207	-623.045817
208	-632.053739
209	-640.105853
210	-647.421151
211	-654.203759
212	-660.642494
213	-666.914284
214	-673.188379
215	-679.628807
216	-686.392619
217	-693.621440
218	-701.424869
219	-709.857418
220	-718.896515
221	-728.434679
222	-738.298206
223	-748.292828
224	-758.259254
225	-768.112483
226	-777.846703
227	-787.503214
228	-797.126338
229	-806.706392
230	-816.151804
231	-825.293815
232	-833.925481
233	-841.856798
234	-848.959793
235	-855.186455
236	-860.559928
237	-865.151215
238	-869.054454
239	-872.368158
240	-875.184087
241	-877.582260
242	-879.629843
243	-881.382033
244	-882.883726
245	-884.171303
246	-885.274249
247	-886.216497
248	-887.017511
249	-887.693118
250	-888.256159
251	-888.716984
252	-889.083829
253	-889.363097
254	-889.559578
255	-889.676593
256	-889.716099
257	-889.676593
258	-889.559578
259	-889.363097
260	-889.083829
261	-888.716984
262	-888.256159
263	-887.693118
264	-887.017511
265	-886.216497
266	-885.274249
267	-884.171303
268	-882.883726
269	-881.382033
270	-879.629843
271	-877.582260
272	-875.184087
273	-872.368158
274	-869.054454
275	-865.151215
276	-860.559928
277	-855.186455
278	-848.959793
279	-841.856798
280	-833.925481
281	-825.293815
282	-816.151804
283	-806.706392
284	-797.126338
285	-787.503214
286	-777.846703
287	-768.112483
288	-758.259254
289	-748.292828
290	-738.298206
291	-728.434679
292	-718.896515
293	-709.857418
294	-701.424869
295	-693.621440
296	-686.392619
297	-679.628807
298	-673.188379
299	-666.914284
300	-660.642494
301	-654.203759
302	-647.421151
303	-640.105853
304	-632.053739
305	-623.045817
306	-612.856601
307	-601.275037
308	-588.140960
309	-573.393727
310	-557.118185
311	-539.561815
312	-521.098525
313	-502.138220
314	-483.016390
315	-463.915999
316	-444.858049
317	-425.760594
318	-406.543188
319	-387.224877
320	-367.985303
321	-349.155169
322	-331.137974
323	-314.299390
324	-298.876551
325	-284.941460
326	-272.417648
327	-261.125486
328	-250.829987
329	-241.276180
330	-232.208692
331	-223.378501
332	-214.541593
333	-205.453874
334	-195.866076
335	-185.522408
336	-174.167309
337	-161.565015
338	-147.534924
339	-131.999379
340	-115.028965
341	-96.859135
342	-77.853598
343	-58.413565
344	-38.867085
345	-19.390731
346	0.000000
347	19.390731
348	38.867085
349	58.413565
350	77.853598
351	96.859135
352	115.028965
353	131.999379
354	147.534924
355	161.565015
356	174.167309
357	185.522408
358	195.866076
359	205.453874
360	214.541593
Line Voltage eab
