Winding Voltages under Load 
Air-Gap Position (elec. degrees)
Voltage (V)
0	-61.0835
1	-52.4132
2	-43.5178
3	-34.3667
4	-24.9078
5	-15.0865
6	-4.84529
7	5.86833
8	17.0893
9	28.8196
10	41.0153
11	53.5839
12	66.3984
13	79.3258
14	92.266
15	105.162
16	118.005
17	130.817
18	143.611
19	156.367
20	169.012
21	181.429
22	193.486
23	205.063
24	216.083
25	226.52
26	236.388
27	245.73
28	254.601
29	263.061
30	271.16
31	278.943
32	286.456
33	293.724
34	300.773
35	307.622
36	314.287
37	320.775
38	327.107
39	333.285
40	339.317
41	345.213
42	350.963
43	356.577
44	362.055
45	367.398
46	372.605
47	377.675
48	382.607
49	387.396
50	392.04
51	396.533
52	400.877
53	405.052
54	409.056
55	412.872
56	416.502
57	419.924
58	423.123
59	426.078
60	428.765
61	431.153
62	433.201
63	434.874
64	436.118
65	436.873
66	437.081
67	436.684
68	435.645
69	433.959
70	431.667
71	428.858
72	425.656
73	422.191
74	418.56
75	414.819
76	410.971
77	406.993
78	402.87
79	398.618
80	394.309
81	390.055
82	385.989
83	382.224
84	378.838
85	375.854
86	373.256
87	370.998
88	369.022
89	367.269
90	365.683
91	364.22
92	362.831
93	361.489
94	360.167
95	358.843
96	357.501
97	356.13
98	354.71
99	353.235
100	351.698
101	350.087
102	348.409
103	346.655
104	344.822
105	342.909
106	340.915
107	338.84
108	336.687
109	334.456
110	332.151
111	329.776
112	327.33
113	324.83
114	322.279
115	319.693
116	317.07
117	314.431
118	311.792
119	309.173
120	306.598
121	304.098
122	301.714
123	299.481
124	297.454
125	295.691
126	294.254
127	293.198
128	292.561
129	292.35
130	292.524
131	292.995
132	293.638
133	294.325
134	294.96
135	295.488
136	295.906
137	296.238
138	296.502
139	296.681
140	296.706
141	296.465
142	295.828
143	294.681
144	292.95
145	290.611
146	287.684
147	284.215
148	280.265
149	275.894
150	271.16
151	266.109
152	260.792
153	255.238
154	249.477
155	243.531
156	237.421
157	231.157
158	224.764
159	218.249
160	211.623
161	204.899
162	198.072
163	191.156
164	184.154
165	177.071
166	169.911
167	162.676
168	155.367
169	147.985
170	140.531
171	133.003
172	125.405
173	117.723
174	109.956
175	102.094
176	94.1395
177	86.0764
178	77.8912
179	69.5673
180	61.0834
181	52.4131
182	43.5176
183	34.3665
184	24.9077
185	15.0864
186	4.84518
187	-5.86844
188	-17.0894
189	-28.8197
190	-41.0154
191	-53.584
192	-66.3985
193	-79.3258
194	-92.266
195	-105.162
196	-118.005
197	-130.817
198	-143.611
199	-156.367
200	-169.012
201	-181.429
202	-193.485
203	-205.063
204	-216.083
205	-226.52
206	-236.388
207	-245.73
208	-254.601
209	-263.06
210	-271.16
211	-278.943
212	-286.456
213	-293.724
214	-300.773
215	-307.622
216	-314.287
217	-320.775
218	-327.107
219	-333.285
220	-339.317
221	-345.213
222	-350.963
223	-356.576
224	-362.055
225	-367.397
226	-372.605
227	-377.675
228	-382.607
229	-387.396
230	-392.04
231	-396.533
232	-400.877
233	-405.052
234	-409.056
235	-412.872
236	-416.502
237	-419.924
238	-423.123
239	-426.078
240	-428.765
241	-431.153
242	-433.201
243	-434.874
244	-436.118
245	-436.873
246	-437.081
247	-436.684
248	-435.645
249	-433.959
250	-431.667
251	-428.858
252	-425.656
253	-422.191
254	-418.56
255	-414.819
256	-410.971
257	-406.993
258	-402.87
259	-398.618
260	-394.309
261	-390.055
262	-385.989
263	-382.224
264	-378.838
265	-375.854
266	-373.256
267	-370.998
268	-369.022
269	-367.269
270	-365.683
271	-364.22
272	-362.831
273	-361.489
274	-360.167
275	-358.843
276	-357.5
277	-356.13
278	-354.71
279	-353.235
280	-351.698
281	-350.087
282	-348.409
283	-346.655
284	-344.822
285	-342.909
286	-340.915
287	-338.84
288	-336.687
289	-334.456
290	-332.151
291	-329.776
292	-327.329
293	-324.83
294	-322.279
295	-319.693
296	-317.07
297	-314.431
298	-311.792
299	-309.173
300	-306.598
301	-304.098
302	-301.714
303	-299.481
304	-297.454
305	-295.691
306	-294.254
307	-293.198
308	-292.561
309	-292.35
310	-292.524
311	-292.995
312	-293.638
313	-294.325
314	-294.96
315	-295.488
316	-295.906
317	-296.238
318	-296.502
319	-296.681
320	-296.706
321	-296.465
322	-295.828
323	-294.681
324	-292.95
325	-290.611
326	-287.684
327	-284.216
328	-280.265
329	-275.894
330	-271.16
331	-266.109
332	-260.792
333	-255.238
334	-249.477
335	-243.531
336	-237.421
337	-231.157
338	-224.764
339	-218.249
340	-211.623
341	-204.899
342	-198.072
343	-191.156
344	-184.154
345	-177.072
346	-169.911
347	-162.676
348	-155.367
349	-147.985
350	-140.531
351	-133.003
352	-125.405
353	-117.723
354	-109.957
355	-102.094
356	-94.1396
357	-86.0765
358	-77.8913
359	-69.5673
360	-61.0835
Phase Voltage va
0	367.682
1	378.74
2	389.683
3	400.507
4	411.21
5	421.787
6	432.236
7	442.553
8	452.735
9	462.779
10	472.682
11	482.442
12	492.054
13	501.516
14	510.826
15	519.98
16	528.976
17	537.811
18	546.481
19	554.986
20	563.321
21	571.484
22	579.474
23	587.287
24	594.921
25	602.374
26	609.644
27	616.727
28	623.623
29	630.329
30	636.843
31	643.163
32	649.287
33	655.213
34	660.94
35	666.465
36	671.788
37	676.905
38	681.817
39	686.521
40	691.015
41	695.299
42	699.372
43	703.231
44	706.876
45	710.306
46	713.52
47	716.516
48	719.294
49	721.852
50	724.191
51	726.31
52	728.207
53	729.882
54	731.335
55	732.565
56	733.572
57	734.355
58	734.915
59	735.251
60	735.363
61	735.251
62	734.915
63	734.355
64	733.572
65	732.565
66	731.335
67	729.882
68	728.207
69	726.31
70	724.191
71	721.852
72	719.294
73	716.516
74	713.52
75	710.306
76	706.876
77	703.231
78	699.372
79	695.299
80	691.015
81	686.521
82	681.817
83	676.905
84	671.788
85	666.465
86	660.94
87	655.213
88	649.287
89	643.163
90	636.843
91	630.329
92	623.623
93	616.727
94	609.644
95	602.374
96	594.921
97	587.287
98	579.474
99	571.484
100	563.321
101	554.986
102	546.481
103	537.811
104	528.976
105	519.98
106	510.826
107	501.516
108	492.054
109	482.442
110	472.682
111	462.779
112	452.735
113	442.553
114	432.236
115	421.787
116	411.21
117	400.507
118	389.683
119	378.74
120	367.682
121	356.511
122	345.232
123	333.848
124	322.362
125	310.778
126	299.099
127	287.329
128	275.472
129	263.531
130	251.509
131	239.411
132	227.24
133	214.999
134	202.694
135	190.326
136	177.9
137	165.421
138	152.891
139	140.314
140	127.694
141	115.036
142	102.343
143	89.6182
144	76.8664
145	64.0911
146	51.2963
147	38.4859
148	25.6638
149	12.8339
150	-8.52651e-013
151	-12.8339
152	-25.6638
153	-38.4859
154	-51.2963
155	-64.0911
156	-76.8664
157	-89.6182
158	-102.343
159	-115.036
160	-127.694
161	-140.314
162	-152.891
163	-165.421
164	-177.9
165	-190.326
166	-202.694
167	-214.999
168	-227.24
169	-239.411
170	-251.509
171	-263.531
172	-275.472
173	-287.329
174	-299.099
175	-310.778
176	-322.362
177	-333.848
178	-345.232
179	-356.511
180	-367.682
181	-378.74
182	-389.683
183	-400.507
184	-411.21
185	-421.787
186	-432.236
187	-442.553
188	-452.735
189	-462.779
190	-472.682
191	-482.442
192	-492.054
193	-501.516
194	-510.826
195	-519.98
196	-528.976
197	-537.811
198	-546.481
199	-554.986
200	-563.321
201	-571.484
202	-579.474
203	-587.287
204	-594.921
205	-602.374
206	-609.644
207	-616.727
208	-623.623
209	-630.329
210	-636.843
211	-643.163
212	-649.287
213	-655.213
214	-660.94
215	-666.465
216	-671.788
217	-676.905
218	-681.817
219	-686.521
220	-691.015
221	-695.299
222	-699.372
223	-703.231
224	-706.876
225	-710.306
226	-713.52
227	-716.516
228	-719.294
229	-721.852
230	-724.191
231	-726.31
232	-728.207
233	-729.882
234	-731.335
235	-732.565
236	-733.572
237	-734.355
238	-734.915
239	-735.251
240	-735.363
241	-735.251
242	-734.915
243	-734.355
244	-733.572
245	-732.565
246	-731.335
247	-729.882
248	-728.207
249	-726.31
250	-724.191
251	-721.852
252	-719.294
253	-716.516
254	-713.52
255	-710.306
256	-706.876
257	-703.231
258	-699.372
259	-695.299
260	-691.015
261	-686.521
262	-681.817
263	-676.905
264	-671.788
265	-666.465
266	-660.94
267	-655.213
268	-649.287
269	-643.163
270	-636.843
271	-630.329
272	-623.623
273	-616.727
274	-609.644
275	-602.374
276	-594.921
277	-587.287
278	-579.474
279	-571.484
280	-563.321
281	-554.986
282	-546.481
283	-537.811
284	-528.976
285	-519.98
286	-510.826
287	-501.516
288	-492.054
289	-482.442
290	-472.682
291	-462.779
292	-452.735
293	-442.553
294	-432.236
295	-421.787
296	-411.21
297	-400.507
298	-389.683
299	-378.74
300	-367.682
301	-356.511
302	-345.232
303	-333.848
304	-322.362
305	-310.778
306	-299.099
307	-287.329
308	-275.472
309	-263.531
310	-251.509
311	-239.411
312	-227.24
313	-214.999
314	-202.694
315	-190.326
316	-177.9
317	-165.421
318	-152.891
319	-140.314
320	-127.694
321	-115.036
322	-102.343
323	-89.6182
324	-76.8664
325	-64.0911
326	-51.2963
327	-38.4859
328	-25.6638
329	-12.8339
330	-2.84217e-013
331	12.8339
332	25.6638
333	38.4859
334	51.2963
335	64.0911
336	76.8664
337	89.6182
338	102.343
339	115.036
340	127.694
341	140.314
342	152.891
343	165.421
344	177.9
345	190.326
346	202.694
347	214.999
348	227.24
349	239.411
350	251.509
351	263.531
352	275.472
353	287.329
354	299.099
355	310.778
356	322.362
357	333.848
358	345.232
359	356.511
360	367.682
Line Voltage vab
