Induced Coil Voltages at Rated Speed
Air-Gap Position (elec. degrees)
Voltage (V)
0	-0.000000
1	-0.166351
2	-0.333323
3	-0.500605
4	-0.666399
5	-0.827504
6	-0.980031
7	-1.120414
8	-1.246235
9	-1.356555
10	-1.451749
11	-1.533078
12	-1.602235
13	-1.660999
14	-1.711030
15	-1.753778
16	-1.790462
17	-1.822085
18	-1.849466
19	-1.873270
20	-1.894041
21	-1.912227
22	-1.928197
23	-1.942256
24	-1.954664
25	-1.965635
26	-1.975356
27	-1.983981
28	-1.991647
29	-1.998469
30	-2.004547
31	-2.009968
32	-2.014808
33	-2.019133
34	-2.023000
35	-2.026461
36	-2.029560
37	-2.032338
38	-2.034827
39	-2.037060
40	-2.039064
41	-2.040862
42	-2.042477
43	-2.043928
44	-2.045231
45	-2.046402
46	-2.047455
47	-2.048402
48	-2.049253
49	-2.050019
50	-2.050708
51	-2.051327
52	-2.051885
53	-2.052387
54	-2.052838
55	-2.053245
56	-2.053611
57	-2.053940
58	-2.054237
59	-2.054504
60	-2.054744
61	-2.054960
62	-2.055155
63	-2.055331
64	-2.055489
65	-2.055631
66	-2.055759
67	-2.055875
68	-2.055979
69	-2.056072
70	-2.056157
71	-2.056233
72	-2.056301
73	-2.056363
74	-2.056418
75	-2.056468
76	-2.056513
77	-2.056554
78	-2.056590
79	-2.056623
80	-2.056653
81	-2.056680
82	-2.056704
83	-2.056725
84	-2.056745
85	-2.056762
86	-2.056778
87	-2.056792
88	-2.056805
89	-2.056817
90	-2.056827
91	-2.056817
92	-2.056805
93	-2.056792
94	-2.056778
95	-2.056762
96	-2.056745
97	-2.056725
98	-2.056704
99	-2.056680
100	-2.056653
101	-2.056623
102	-2.056590
103	-2.056554
104	-2.056513
105	-2.056468
106	-2.056418
107	-2.056363
108	-2.056301
109	-2.056233
110	-2.056157
111	-2.056072
112	-2.055979
113	-2.055875
114	-2.055759
115	-2.055631
116	-2.055489
117	-2.055331
118	-2.055155
119	-2.054960
120	-2.054744
121	-2.054504
122	-2.054237
123	-2.053940
124	-2.053611
125	-2.053245
126	-2.052838
127	-2.052387
128	-2.051885
129	-2.051327
130	-2.050708
131	-2.050019
132	-2.049253
133	-2.048402
134	-2.047455
135	-2.046402
136	-2.045231
137	-2.043928
138	-2.042477
139	-2.040862
140	-2.039064
141	-2.037060
142	-2.034827
143	-2.032338
144	-2.029560
145	-2.026461
146	-2.023000
147	-2.019133
148	-2.014808
149	-2.009968
150	-2.004547
151	-1.998469
152	-1.991647
153	-1.983981
154	-1.975356
155	-1.965635
156	-1.954664
157	-1.942256
158	-1.928197
159	-1.912227
160	-1.894041
161	-1.873270
162	-1.849466
163	-1.822085
164	-1.790462
165	-1.753778
166	-1.711030
167	-1.660999
168	-1.602235
169	-1.533078
170	-1.451749
171	-1.356555
172	-1.246235
173	-1.120414
174	-0.980031
175	-0.827504
176	-0.666399
177	-0.500605
178	-0.333323
179	-0.166351
180	-0.000000
181	0.166351
182	0.333323
183	0.500605
184	0.666399
185	0.827504
186	0.980031
187	1.120414
188	1.246235
189	1.356555
190	1.451749
191	1.533078
192	1.602235
193	1.660999
194	1.711030
195	1.753778
196	1.790462
197	1.822085
198	1.849466
199	1.873270
200	1.894041
201	1.912227
202	1.928197
203	1.942256
204	1.954664
205	1.965635
206	1.975356
207	1.983981
208	1.991647
209	1.998469
210	2.004547
211	2.009968
212	2.014808
213	2.019133
214	2.023000
215	2.026461
216	2.029560
217	2.032338
218	2.034827
219	2.037060
220	2.039064
221	2.040862
222	2.042477
223	2.043928
224	2.045231
225	2.046402
226	2.047455
227	2.048402
228	2.049253
229	2.050019
230	2.050708
231	2.051327
232	2.051885
233	2.052387
234	2.052838
235	2.053245
236	2.053611
237	2.053940
238	2.054237
239	2.054504
240	2.054744
241	2.054960
242	2.055155
243	2.055331
244	2.055489
245	2.055631
246	2.055759
247	2.055875
248	2.055979
249	2.056072
250	2.056157
251	2.056233
252	2.056301
253	2.056363
254	2.056418
255	2.056468
256	2.056513
257	2.056554
258	2.056590
259	2.056623
260	2.056653
261	2.056680
262	2.056704
263	2.056725
264	2.056745
265	2.056762
266	2.056778
267	2.056792
268	2.056805
269	2.056817
270	2.056827
271	2.056817
272	2.056805
273	2.056792
274	2.056778
275	2.056762
276	2.056745
277	2.056725
278	2.056704
279	2.056680
280	2.056653
281	2.056623
282	2.056590
283	2.056554
284	2.056513
285	2.056468
286	2.056418
287	2.056363
288	2.056301
289	2.056233
290	2.056157
291	2.056072
292	2.055979
293	2.055875
294	2.055759
295	2.055631
296	2.055489
297	2.055331
298	2.055155
299	2.054960
300	2.054744
301	2.054504
302	2.054237
303	2.053940
304	2.053611
305	2.053245
306	2.052838
307	2.052387
308	2.051885
309	2.051327
310	2.050708
311	2.050019
312	2.049253
313	2.048402
314	2.047455
315	2.046402
316	2.045231
317	2.043928
318	2.042477
319	2.040862
320	2.039064
321	2.037060
322	2.034827
323	2.032338
324	2.029560
325	2.026461
326	2.023000
327	2.019133
328	2.014808
329	2.009968
330	2.004547
331	1.998469
332	1.991647
333	1.983981
334	1.975356
335	1.965635
336	1.954664
337	1.942256
338	1.928197
339	1.912227
340	1.894041
341	1.873270
342	1.849466
343	1.822085
344	1.790462
345	1.753778
346	1.711030
347	1.660999
348	1.602235
349	1.533078
350	1.451749
351	1.356555
352	1.246235
353	1.120414
354	0.980031
355	0.827504
356	0.666399
357	0.500605
358	0.333323
359	0.166351
360	0.000000
One-Conductor Voltage
0	2.004547
1	1.832118
2	1.658324
3	1.483377
4	1.308957
5	1.138132
6	0.974632
7	0.821842
8	0.681961
9	0.555672
10	0.442292
11	0.340192
12	0.247231
13	0.161087
14	0.079433
15	0.000000
16	-0.079433
17	-0.161087
18	-0.247231
19	-0.340192
20	-0.442292
21	-0.555672
22	-0.681961
23	-0.821842
24	-0.974632
25	-1.138132
26	-1.308957
27	-1.483377
28	-1.658324
29	-1.832118
30	-2.004547
31	-2.176319
32	-2.348130
33	-2.519737
34	-2.689399
35	-2.853965
36	-3.009592
37	-3.152752
38	-3.281062
39	-3.393615
40	-3.490812
41	-3.573940
42	-3.644712
43	-3.704926
44	-3.756261
45	-3.800181
46	-3.837918
47	-3.870487
48	-3.898719
49	-3.923288
50	-3.944749
51	-3.963555
52	-3.980082
53	-3.994643
54	-4.007502
55	-4.018880
56	-4.028966
57	-4.037921
58	-4.045884
59	-4.052973
60	-4.059291
61	-4.064928
62	-4.069963
63	-4.074463
64	-4.078489
65	-4.082092
66	-4.085320
67	-4.088212
68	-4.090806
69	-4.093132
70	-4.095220
71	-4.097095
72	-4.098778
73	-4.100290
74	-4.101649
75	-4.102870
76	-4.103968
77	-4.104956
78	-4.105843
79	-4.106642
80	-4.107361
81	-4.108007
82	-4.108589
83	-4.109112
84	-4.109583
85	-4.110007
86	-4.110389
87	-4.110733
88	-4.111042
89	-4.111320
90	-4.111571
91	-4.111777
92	-4.111961
93	-4.112123
94	-4.112267
95	-4.112393
96	-4.112504
97	-4.112600
98	-4.112682
99	-4.112752
100	-4.112809
101	-4.112856
102	-4.112891
103	-4.112916
104	-4.112931
105	-4.112936
106	-4.112931
107	-4.112916
108	-4.112891
109	-4.112856
110	-4.112809
111	-4.112752
112	-4.112682
113	-4.112600
114	-4.112504
115	-4.112393
116	-4.112267
117	-4.112123
118	-4.111961
119	-4.111777
120	-4.111571
121	-4.111320
122	-4.111042
123	-4.110733
124	-4.110389
125	-4.110007
126	-4.109583
127	-4.109112
128	-4.108589
129	-4.108007
130	-4.107361
131	-4.106642
132	-4.105843
133	-4.104956
134	-4.103968
135	-4.102870
136	-4.101649
137	-4.100290
138	-4.098778
139	-4.097095
140	-4.095220
141	-4.093132
142	-4.090806
143	-4.088212
144	-4.085320
145	-4.082092
146	-4.078489
147	-4.074463
148	-4.069963
149	-4.064928
150	-4.059291
151	-4.052973
152	-4.045884
153	-4.037921
154	-4.028966
155	-4.018880
156	-4.007502
157	-3.994643
158	-3.980082
159	-3.963555
160	-3.944749
161	-3.923288
162	-3.898719
163	-3.870487
164	-3.837918
165	-3.800181
166	-3.756261
167	-3.704926
168	-3.644712
169	-3.573940
170	-3.490812
171	-3.393615
172	-3.281062
173	-3.152752
174	-3.009592
175	-2.853965
176	-2.689399
177	-2.519737
178	-2.348130
179	-2.176319
180	-2.004547
181	-1.832118
182	-1.658324
183	-1.483377
184	-1.308957
185	-1.138132
186	-0.974632
187	-0.821842
188	-0.681961
189	-0.555672
190	-0.442292
191	-0.340192
192	-0.247231
193	-0.161087
194	-0.079433
195	0.000000
196	0.079433
197	0.161087
198	0.247231
199	0.340192
200	0.442292
201	0.555672
202	0.681961
203	0.821842
204	0.974632
205	1.138132
206	1.308957
207	1.483377
208	1.658324
209	1.832118
210	2.004547
211	2.176319
212	2.348130
213	2.519737
214	2.689399
215	2.853965
216	3.009592
217	3.152752
218	3.281062
219	3.393615
220	3.490812
221	3.573940
222	3.644712
223	3.704926
224	3.756261
225	3.800181
226	3.837918
227	3.870487
228	3.898719
229	3.923288
230	3.944749
231	3.963555
232	3.980082
233	3.994643
234	4.007502
235	4.018880
236	4.028966
237	4.037921
238	4.045884
239	4.052973
240	4.059291
241	4.064928
242	4.069963
243	4.074463
244	4.078489
245	4.082092
246	4.085320
247	4.088212
248	4.090806
249	4.093132
250	4.095220
251	4.097095
252	4.098778
253	4.100290
254	4.101649
255	4.102870
256	4.103968
257	4.104956
258	4.105843
259	4.106642
260	4.107361
261	4.108007
262	4.108589
263	4.109112
264	4.109583
265	4.110007
266	4.110389
267	4.110733
268	4.111042
269	4.111320
270	4.111571
271	4.111777
272	4.111961
273	4.112123
274	4.112267
275	4.112393
276	4.112504
277	4.112600
278	4.112682
279	4.112752
280	4.112809
281	4.112856
282	4.112891
283	4.112916
284	4.112931
285	4.112936
286	4.112931
287	4.112916
288	4.112891
289	4.112856
290	4.112809
291	4.112752
292	4.112682
293	4.112600
294	4.112504
295	4.112393
296	4.112267
297	4.112123
298	4.111961
299	4.111777
300	4.111571
301	4.111320
302	4.111042
303	4.110733
304	4.110389
305	4.110007
306	4.109583
307	4.109112
308	4.108589
309	4.108007
310	4.107361
311	4.106642
312	4.105843
313	4.104956
314	4.103968
315	4.102870
316	4.101649
317	4.100290
318	4.098778
319	4.097095
320	4.095220
321	4.093132
322	4.090806
323	4.088212
324	4.085320
325	4.082092
326	4.078489
327	4.074463
328	4.069963
329	4.064928
330	4.059291
331	4.052973
332	4.045884
333	4.037921
334	4.028966
335	4.018880
336	4.007502
337	3.994643
338	3.980082
339	3.963555
340	3.944749
341	3.923288
342	3.898719
343	3.870487
344	3.837918
345	3.800181
346	3.756261
347	3.704926
348	3.644712
349	3.573940
350	3.490812
351	3.393615
352	3.281062
353	3.152752
354	3.009592
355	2.853965
356	2.689399
357	2.519737
358	2.348130
359	2.176319
360	2.004547
One-Turn Voltage
