Induced Coil Voltages at Rated Speed
Air-Gap Position (elec. degrees)
Voltage (V)
0	-0.000000
1	-0.175592
2	-0.351841
3	-0.528416
4	-0.703421
5	-0.873476
6	-1.034477
7	-1.182659
8	-1.315470
9	-1.431919
10	-1.532401
11	-1.618249
12	-1.691248
13	-1.753276
14	-1.806087
15	-1.851211
16	-1.889933
17	-1.923312
18	-1.952214
19	-1.977340
20	-1.999266
21	-2.018462
22	-2.035319
23	-2.050159
24	-2.063256
25	-2.074837
26	-2.085098
27	-2.094203
28	-2.102294
29	-2.109495
30	-2.115911
31	-2.121633
32	-2.126742
33	-2.131307
34	-2.135389
35	-2.139042
36	-2.142314
37	-2.145245
38	-2.147873
39	-2.150230
40	-2.152345
41	-2.154243
42	-2.155948
43	-2.157479
44	-2.158855
45	-2.160091
46	-2.161203
47	-2.162202
48	-2.163101
49	-2.163909
50	-2.164636
51	-2.165290
52	-2.165879
53	-2.166408
54	-2.166885
55	-2.167314
56	-2.167700
57	-2.168048
58	-2.168361
59	-2.168643
60	-2.168896
61	-2.169125
62	-2.169331
63	-2.169516
64	-2.169683
65	-2.169833
66	-2.169968
67	-2.170090
68	-2.170200
69	-2.170299
70	-2.170388
71	-2.170468
72	-2.170540
73	-2.170605
74	-2.170664
75	-2.170716
76	-2.170764
77	-2.170807
78	-2.170845
79	-2.170880
80	-2.170911
81	-2.170939
82	-2.170965
83	-2.170988
84	-2.171008
85	-2.171027
86	-2.171044
87	-2.171059
88	-2.171072
89	-2.171084
90	-2.171095
91	-2.171084
92	-2.171072
93	-2.171059
94	-2.171044
95	-2.171027
96	-2.171008
97	-2.170988
98	-2.170965
99	-2.170939
100	-2.170911
101	-2.170880
102	-2.170845
103	-2.170807
104	-2.170764
105	-2.170716
106	-2.170664
107	-2.170605
108	-2.170540
109	-2.170468
110	-2.170388
111	-2.170299
112	-2.170200
113	-2.170090
114	-2.169968
115	-2.169833
116	-2.169683
117	-2.169516
118	-2.169331
119	-2.169125
120	-2.168896
121	-2.168643
122	-2.168361
123	-2.168048
124	-2.167700
125	-2.167314
126	-2.166885
127	-2.166408
128	-2.165879
129	-2.165290
130	-2.164636
131	-2.163909
132	-2.163101
133	-2.162202
134	-2.161203
135	-2.160091
136	-2.158855
137	-2.157479
138	-2.155948
139	-2.154243
140	-2.152345
141	-2.150230
142	-2.147873
143	-2.145245
144	-2.142314
145	-2.139042
146	-2.135389
147	-2.131307
148	-2.126742
149	-2.121633
150	-2.115911
151	-2.109495
152	-2.102294
153	-2.094203
154	-2.085098
155	-2.074837
156	-2.063256
157	-2.050159
158	-2.035319
159	-2.018462
160	-1.999266
161	-1.977340
162	-1.952214
163	-1.923312
164	-1.889933
165	-1.851211
166	-1.806087
167	-1.753276
168	-1.691248
169	-1.618249
170	-1.532401
171	-1.431919
172	-1.315470
173	-1.182659
174	-1.034477
175	-0.873476
176	-0.703421
177	-0.528416
178	-0.351841
179	-0.175592
180	-0.000000
181	0.175592
182	0.351841
183	0.528416
184	0.703421
185	0.873476
186	1.034477
187	1.182659
188	1.315470
189	1.431919
190	1.532401
191	1.618249
192	1.691248
193	1.753276
194	1.806087
195	1.851211
196	1.889933
197	1.923312
198	1.952214
199	1.977340
200	1.999266
201	2.018462
202	2.035319
203	2.050159
204	2.063256
205	2.074837
206	2.085098
207	2.094203
208	2.102294
209	2.109495
210	2.115911
211	2.121633
212	2.126742
213	2.131307
214	2.135389
215	2.139042
216	2.142314
217	2.145245
218	2.147873
219	2.150230
220	2.152345
221	2.154243
222	2.155948
223	2.157479
224	2.158855
225	2.160091
226	2.161203
227	2.162202
228	2.163101
229	2.163909
230	2.164636
231	2.165290
232	2.165879
233	2.166408
234	2.166885
235	2.167314
236	2.167700
237	2.168048
238	2.168361
239	2.168643
240	2.168896
241	2.169125
242	2.169331
243	2.169516
244	2.169683
245	2.169833
246	2.169968
247	2.170090
248	2.170200
249	2.170299
250	2.170388
251	2.170468
252	2.170540
253	2.170605
254	2.170664
255	2.170716
256	2.170764
257	2.170807
258	2.170845
259	2.170880
260	2.170911
261	2.170939
262	2.170965
263	2.170988
264	2.171008
265	2.171027
266	2.171044
267	2.171059
268	2.171072
269	2.171084
270	2.171095
271	2.171084
272	2.171072
273	2.171059
274	2.171044
275	2.171027
276	2.171008
277	2.170988
278	2.170965
279	2.170939
280	2.170911
281	2.170880
282	2.170845
283	2.170807
284	2.170764
285	2.170716
286	2.170664
287	2.170605
288	2.170540
289	2.170468
290	2.170388
291	2.170299
292	2.170200
293	2.170090
294	2.169968
295	2.169833
296	2.169683
297	2.169516
298	2.169331
299	2.169125
300	2.168896
301	2.168643
302	2.168361
303	2.168048
304	2.167700
305	2.167314
306	2.166885
307	2.166408
308	2.165879
309	2.165290
310	2.164636
311	2.163909
312	2.163101
313	2.162202
314	2.161203
315	2.160091
316	2.158855
317	2.157479
318	2.155948
319	2.154243
320	2.152345
321	2.150230
322	2.147873
323	2.145245
324	2.142314
325	2.139042
326	2.135389
327	2.131307
328	2.126742
329	2.121633
330	2.115911
331	2.109495
332	2.102294
333	2.094203
334	2.085098
335	2.074837
336	2.063256
337	2.050159
338	2.035319
339	2.018462
340	1.999266
341	1.977340
342	1.952214
343	1.923312
344	1.889933
345	1.851211
346	1.806087
347	1.753276
348	1.691248
349	1.618249
350	1.532401
351	1.431919
352	1.315470
353	1.182659
354	1.034477
355	0.873476
356	0.703421
357	0.528416
358	0.351841
359	0.175592
360	0.000000
One-Conductor Voltage
0	2.115911
1	1.933903
2	1.750454
3	1.565787
4	1.381677
5	1.201361
6	1.028779
7	0.867500
8	0.719848
9	0.586543
10	0.466864
11	0.359091
12	0.260966
13	0.170036
14	0.083845
15	0.000000
16	-0.083845
17	-0.170036
18	-0.260966
19	-0.359091
20	-0.466864
21	-0.586543
22	-0.719848
23	-0.867500
24	-1.028779
25	-1.201361
26	-1.381677
27	-1.565787
28	-1.750454
29	-1.933903
30	-2.115911
31	-2.297225
32	-2.478582
33	-2.659722
34	-2.838810
35	-3.012518
36	-3.176791
37	-3.327904
38	-3.463344
39	-3.582149
40	-3.684746
41	-3.772492
42	-3.847196
43	-3.910756
44	-3.964942
45	-4.011302
46	-4.051135
47	-4.085514
48	-4.115314
49	-4.141249
50	-4.163902
51	-4.183752
52	-4.201197
53	-4.216568
54	-4.230141
55	-4.242151
56	-4.252798
57	-4.262250
58	-4.270655
59	-4.278138
60	-4.284807
61	-4.290758
62	-4.296072
63	-4.300822
64	-4.305072
65	-4.308875
66	-4.312282
67	-4.315335
68	-4.318073
69	-4.320529
70	-4.322733
71	-4.324711
72	-4.326488
73	-4.328084
74	-4.329519
75	-4.330808
76	-4.331967
77	-4.333009
78	-4.333946
79	-4.334789
80	-4.335547
81	-4.336230
82	-4.336843
83	-4.337396
84	-4.337893
85	-4.338341
86	-4.338744
87	-4.339107
88	-4.339433
89	-4.339727
90	-4.339992
91	-4.340209
92	-4.340403
93	-4.340575
94	-4.340726
95	-4.340860
96	-4.340977
97	-4.341078
98	-4.341165
99	-4.341238
100	-4.341299
101	-4.341348
102	-4.341385
103	-4.341412
104	-4.341428
105	-4.341433
106	-4.341428
107	-4.341412
108	-4.341385
109	-4.341348
110	-4.341299
111	-4.341238
112	-4.341165
113	-4.341078
114	-4.340977
115	-4.340860
116	-4.340726
117	-4.340575
118	-4.340403
119	-4.340209
120	-4.339992
121	-4.339727
122	-4.339433
123	-4.339107
124	-4.338744
125	-4.338341
126	-4.337893
127	-4.337396
128	-4.336843
129	-4.336230
130	-4.335547
131	-4.334789
132	-4.333946
133	-4.333009
134	-4.331967
135	-4.330808
136	-4.329519
137	-4.328084
138	-4.326488
139	-4.324711
140	-4.322733
141	-4.320529
142	-4.318073
143	-4.315335
144	-4.312282
145	-4.308875
146	-4.305072
147	-4.300822
148	-4.296072
149	-4.290758
150	-4.284807
151	-4.278138
152	-4.270655
153	-4.262250
154	-4.252798
155	-4.242151
156	-4.230141
157	-4.216568
158	-4.201197
159	-4.183752
160	-4.163902
161	-4.141249
162	-4.115314
163	-4.085514
164	-4.051135
165	-4.011302
166	-3.964942
167	-3.910756
168	-3.847196
169	-3.772492
170	-3.684746
171	-3.582149
172	-3.463344
173	-3.327904
174	-3.176791
175	-3.012518
176	-2.838810
177	-2.659722
178	-2.478582
179	-2.297225
180	-2.115911
181	-1.933903
182	-1.750454
183	-1.565787
184	-1.381677
185	-1.201361
186	-1.028779
187	-0.867500
188	-0.719848
189	-0.586543
190	-0.466864
191	-0.359091
192	-0.260966
193	-0.170036
194	-0.083845
195	0.000000
196	0.083845
197	0.170036
198	0.260966
199	0.359091
200	0.466864
201	0.586543
202	0.719848
203	0.867500
204	1.028779
205	1.201361
206	1.381677
207	1.565787
208	1.750454
209	1.933903
210	2.115911
211	2.297225
212	2.478582
213	2.659722
214	2.838810
215	3.012518
216	3.176791
217	3.327904
218	3.463344
219	3.582149
220	3.684746
221	3.772492
222	3.847196
223	3.910756
224	3.964942
225	4.011302
226	4.051135
227	4.085514
228	4.115314
229	4.141249
230	4.163902
231	4.183752
232	4.201197
233	4.216568
234	4.230141
235	4.242151
236	4.252798
237	4.262250
238	4.270655
239	4.278138
240	4.284807
241	4.290758
242	4.296072
243	4.300822
244	4.305072
245	4.308875
246	4.312282
247	4.315335
248	4.318073
249	4.320529
250	4.322733
251	4.324711
252	4.326488
253	4.328084
254	4.329519
255	4.330808
256	4.331967
257	4.333009
258	4.333946
259	4.334789
260	4.335547
261	4.336230
262	4.336843
263	4.337396
264	4.337893
265	4.338341
266	4.338744
267	4.339107
268	4.339433
269	4.339727
270	4.339992
271	4.340209
272	4.340403
273	4.340575
274	4.340726
275	4.340860
276	4.340977
277	4.341078
278	4.341165
279	4.341238
280	4.341299
281	4.341348
282	4.341385
283	4.341412
284	4.341428
285	4.341433
286	4.341428
287	4.341412
288	4.341385
289	4.341348
290	4.341299
291	4.341238
292	4.341165
293	4.341078
294	4.340977
295	4.340860
296	4.340726
297	4.340575
298	4.340403
299	4.340209
300	4.339992
301	4.339727
302	4.339433
303	4.339107
304	4.338744
305	4.338341
306	4.337893
307	4.337396
308	4.336843
309	4.336230
310	4.335547
311	4.334789
312	4.333946
313	4.333009
314	4.331967
315	4.330808
316	4.329519
317	4.328084
318	4.326488
319	4.324711
320	4.322733
321	4.320529
322	4.318073
323	4.315335
324	4.312282
325	4.308875
326	4.305072
327	4.300822
328	4.296072
329	4.290758
330	4.284807
331	4.278138
332	4.270655
333	4.262250
334	4.252798
335	4.242151
336	4.230141
337	4.216568
338	4.201197
339	4.183752
340	4.163902
341	4.141249
342	4.115314
343	4.085514
344	4.051135
345	4.011302
346	3.964942
347	3.910756
348	3.847196
349	3.772492
350	3.684746
351	3.582149
352	3.463344
353	3.327904
354	3.176791
355	3.012518
356	2.838810
357	2.659722
358	2.478582
359	2.297225
360	2.115911
One-Turn Voltage
